37916,36918,37088,36327,36372,34979,34096,32022,31054,29344,28776,27361,27073,26009,26146,25626,26484,26793,28461,29430,31666,33194,35800,37435,40237,41924,43998,44423,44994,43825,42862,40315,38419,35443,33412,30470,28620,25917,24580,23212,23652,23443,24526,24949,26637,27664,30012,31509,33970,35286,37256,37847,39012,38761,39109,38090,37785,36432,36224,35197,35186,33930,33374,31666,30900,29283,28507,26539,26721,27695,30963,33765,37321,39041,40495,40072,40216,39309,39362,38225,37785,35950,34827,32643,31660,29938,29491,28226,28266,27624,28302,28261,29553,30190,32112,33251,35596,37076,39568,40957,43426,44718,46465,46453,46511,44819,43557,40825,38857,35823,33766,30761,28907,26252,25046,23726,24264,24300,25710,26411,28319,29508,31977,33613,36293,37892,40170,41059,42488,42452,42980,42327,42639,41918,41892,40460,39518,37039,35317,32316,29722,26831,26699,26760,28651,30085,32137,32447,33290,33099,34196,34474,35589,35430,35838,34929,34996,34297,34744,34195,34530,33735,33718,32583,32464,31552,31902,31513,32329,32454,33948,34810,36897,38507,41223,42690,44552,44628,44936,43623,42751,40562,39030,36223,34187,31071,28950,26210,25114,23630,23487,22701,23182,23057,24327,25091,27227,28715,31304,32854,35128,36044,37533,37699,38637,38520,39163,38409,38119,36341,34983,32343,30177,26627,25081,24335,25768,26999,29265,30024,30875,30345,30853,30804,31998,32348,33519,33320,33575,32639,32597,31636,31621,30637,30519,29402,29129,27937,27796,26949,27272,26938,27852,28188,29699,30444,32521,33838,35924,36795,38075,37922,38164,37071,36658,35199,34495,32718,31748,29783,28992,27938,28129,27416,27627,26974,27378,27174,28188,28656,30267,31172,33058,33993,35593,35955,36814,36424,36662,36039,36450,36049,36332,35364,34894,33165,32074,29902,28061,25724,25901,26747,29439,31505,33969,34645,35333,34778,35136,34891,35669,35568,36005,35104,34650,33185,32573,31142,30523,29030,28435,27069,26742,25882,26326,26399,27725,28559,30570,32032,34433,36231,38999,40632,42552,42927,43345,42167,41084,38712,36933,34287,32456,29872,28225,25994,25309,24696,25317,25373,26492,27033,28704,29907,32173,33708,35971,37154,38755,39119,39841,39303,39081,37699,36990,35654,35400,34473,34176,32845,32098,30450,29662,27948,26723,25843,27504,29612,33071,35554,37903,38232,38372,37319,37057,36260,36314,35461,34943,33203,32013,30182,29352,28026,27617,26669,26696,26189,26610,26611,27716,28441,30188,31463,33671,35220,37472,39199,41541,42707,43974,43832,43706,42155,40759,38374,36592,34053,32205,29656,27835,25619,24915,24184,24394,24144,24890,25238,26666,27791,29889,31508,33818,35335,37311,38312,39610,39860,40382,39855,39727,38855,38706,37865,37430,36026,35026,33148,31883,29965,28389,26862,27842,29732,33092,35813,38464,39194,39494,38671,38441,37741,37722,36953,36514,35101,34121,32579,31871,30791,30446,29614,29580,29127,29505,29596,30637,31349,32802,33750,35442,36699,38559,40051,42213,43497,44832,44805,44653,43344,41978,39658,37715,35069,32973,30386,28495,26302,25388,24728,25114,25275,26311,27108,28760,30236,32470,34239,36465,37943,39612,40291,41007,40705,40537,39818,39859,39504,39536,38769,38132,36552,35317,33280,31236,29484,29965,30861,32714,34299,35746,35673,35487,34664,34509,33891,33595,32583,31761,30213,29285,28364,28435,28433,29216,29816,31063,31982,33435,34396,35521,35762,36023,35530,35364,34817,35193,36139,38309,40455,42960,44488,45818,46098,46233,45563,44776,42797,40612,37594,34749,31541,29077,26536,24677,22773,21671,20747,20955,21588,23356,25407,28237,30804,33628,35770,37908,39399,41112,42375,43648,43989,43980,42808,41180,38589,35519,31973,30118,29182,29323,29520,29778,28959,27923,26665,26337,26395,27282,28124,29225,29811,30624,31309,32475,33406,34532,35140,35671,35434,35070,34114,33277,32141,31309,30293,29722,29132,29019,29078,30013,31000,32379,33311,34133,34350,34532,34379,34499,34275,34098,33373,32574,31386,30787,30239,29898,29248,28744,28052,27787,27676,28196,28852,30012,31031,32209,33005,33753,34073,34497,34767,35314,35611,35841,35467,34848,33636,32387,30558,28343,26805,27132,28567,30914,33073,34688,35034,34699,33935,33482,33128,33084,32820,32462,31625,30821,29955,29441,28896,28523,28052,27752,27400,27354,27533,28231,29123,30323,31547,33034,34443,35936,37509,39157,40275,40961,40857,40194,38811,37072,34988,32926,30837,28953,27168,25716,24714,24731,25290,26124,27025,28123,29322,30844,32519,34319,35944,37382,38294,38695,38484,37902,37137,36536,36070,35637,34985,34084,32894,31494,30030,28204,26143,25426,26423,28631,31438,34057,35805,36411,36291,35973,35789,35802,35869,35725,35159,34178,33067,32047,31200,30347,29486,28602,27854,27254,27001,27089,27580,28355,29399,30633,32173,33746,35472,37391,39218,40536,41362,41517,41162,40164,38789,37145,35484,33711,31997,30227,28635,27484,27316,27530,27962,28396,29007,29616,30522,31449,32467,33391,34389,35008,35454,35516,35634,35837,36486,37164,37834,37962,37727,36698,35313,33347,30904,28947,28927,30150,32332,34322,35792,35985,35531,34815,34672,34829,35394,35770,36082,35893,35661,35242,35053,34664,34377,33804,33378,32712,32295,31821,31781,31732,32087,32428,33286,34229,35582,37132,39120,40697,42043,42413,42445,41796,40980,39648,38333,36518,34742,32658,30930,29264,28623,28402,28758,28998,29684,30227,31313,32374,33876,35083,36498,37410,38352,38807,39481,39878,40558,40721,40847,40207,39342,37717,35841,32829,30641,29825,30480,31413,33001,33728,33840,33061,32652,32271,32558,32571,32864,32584,32521,32247,32719,33109,33917,34239,34747,34644,34761,34479,34620,34385,34547,34335,34577,34656,35277,35725,37110,38275,39715,40341,40743,40226,39660,38372,37391,35795,34408,32525,31070,29338,28496,27833,27958,27753,28086,28039,28559,28911,29953,30696,31974,32761,33876,34420,35395,35903,36819,37113,37536,37095,36669,35267,33764,30923,28733,27504,27899,28552,29945,30346,30346,29270,28722,28143,28535,28733,29571,29710,29981,29628,29983,30011,30734,31002,31778,31884,32296,31994,32185,31870,32075,31761,31991,31700,31945,31610,32166,32427,33231,33410,33834,33260,32979,32000,31724,31065,31143,30644,30645,29913,29956,29890,30671,30820,31410,31193,31471,31163,31618,31620,32360,32496,33128,32867,32929,32155,32029,31479,31819,31668,32122,31821,32001,31315,31133,29961,28881,27976,29358,31270,34399,36590,38368,38105,37457,35799,34872,33526,33019,31795,31053,29441,28591,27396,27296,26835,27203,27005,27595,27607,28473,28886,30264,31100,32686,33571,35118,35806,37017,37651,38880,39003,39389,38561,37953,36192,34874,32839,31711,30062,29373,28137,27764,27076,27867,28267,29323,29551,30475,30684,31777,32263,33595,34188,35457,35769,36586,36328,36585,36044,36433,36233,36813,36411,36375,35133,34220,32190,30504,27492,26198,25865,27649,29540,32298,33609,34667,34248,34553,34375,35386,35768,36884,36728,36795,35716,35330,34015,33356,31694,30720,28940,28137,26734,26539,25976,26737,27103,28757,29946,32214,33799,36574,38433,40631,41326,42144,41477,41033,39220,37997,35810,34471,32266,31016,28987,28157,27219,27685,27379,28073,28025,29041,29431,30934,31676,33328,34026,35357,35502,36205,35738,35991,35437,36051,35936,36608,35981,35771,34192,33092,30921,29133,26366,25950,26224,28629,30738,33550,34612,35544,35073,35620,35541,36598,36699,37351,36553,36319,35032,34686,33419,32969,31492,31005,29700,29489,28653,29081,28895,30007,30494,32264,33400,35638,37150,39830,41314,43224,43596,44236,43386,42898,41065,40004,37836,36464,34094,32718,30467,29668,28639,28970,28446,29038,28770,29681,29919,31486,32289,34210,35131,36832,37342,38624,38688,39610,39590,40622,40452,40746,39583,38865,36752,35381,32459,30705,29533,30668,31488,33616,34442,35315,34494,34596,33994,34733,34503,35047,34246,34151,33016,33221,32777,33403,32975,33390,32758,33150,32680,33451,33388,34400,34409,35450,35631,37002,37467,39205,40033,41603,41616,41786,40323,39428,37222,36012,33867,32722,30558,29432,27459,26805,25801,26407,26294,27289,27339,28425,28627,30052,30664,32358,32991,34482,34700,35608,35249,35776,35304,35970,35681,36222,35381,35226,33714,32911,30724,28953,26687,26995,27491,29711,31004,32704,32388,32375,31365,31817,31697,32796,32829,33558,32868,33027,32240,32518,31698,31723,30590,30398,29171,29009,27966,28148,27456,27977,27771,28946,29447,31177,32283,34609,35762,37607,37825,38503,37701,37510,36128,35679,34115,33391,31574,30637,28863,28765,28107,28518,27936,28373,27887,28622,28701,30068,30641,32290,32872,34280,34477,35356,34959,35479,35116,35897,35700,36270,35492,35323,33807,33024,30847,29084,27077,27682,28534,31179,32858,34809,34664,34683,33528,33618,33124,33863,33600,34045,33110,33018,31983,32067,31182,31178,30095,29933,28811,28800,28060,28601,28418,29443,29722,31271,32060,33946,35203,37474,38470,39937,39846,40183,38995,38313,36458,35468,33455,32389,30395,29386,27759,27841,27541,28289,28144,29064,29178,30467,31073,32751,33518,35123,35585,36743,36674,37211,36529,36646,35913,36309,35892,36236,35318,34944,33272,32226,30079,28390,26177,26593,27571,30470,32724,35349,35929,36386,35563,35821,35468,36201,35913,36081,34704,33784,31888,31037,29414,28670,27113,26647,25580,25764,25569,26761,27540,29551,30869,33280,34905,37380,39065,41590,42765,44157,43935,43900,42441,41411,39239,37831,35527,34121,32007,30919,29215,29043,28767,29668,29835,31015,31379,32656,33258,34816,35540,37011,37472,38461,38291,38669,37932,37844,36980,37141,36692,37028,36307,36173,34963,34348,32739,31388,29586,30184,31173,33583,35297,37357,37496,37600,36737,36762,36305,36740,36214,36258,35205,34857,33985,34097,33537,33645,32844,32829,32088,32206,31775,32332,32217,32954,33005,34028,34495,35756,36550,38264,39113,40409,40310,40380,39405,38958,37764,37282,35940,35089,33323,32187,30507,30098,29438,29678,29280,29714,29536,30264,30510,31680,32293,33640,34193,35222,35302,35913,35731,36334,36361,37015,36644,36568,35306,34289,32305,30401,27716,27119,27161,28721,29968,31622,31738,31727,30865,30934,30799,31569,31720,32322,31833,31737,30992,31068,30674,30945,30505,30535,29766,29538,28727,28770,28452,28969,29014,29840,30287,31459,32211,33926,34957,36287,36533,36790,36014,35446,34119,33393,32106,31411,30091,29337,28099,28006,27915,28548,28633,29224,29183,29773,29991,30981,31623,32940,33690,34821,35128,35618,35248,35117,34296,34018,33423,33556,33161,33045,32192,31638,30410,29619,27914,26546,25987,27629,29911,33095,35354,37043,37045,36709,35691,35331,34803,34837,34290,33850,32598,31660,30370,29749,28837,28417,27622,27398,26912,27099,27184,28081,28926,30441,31750,33648,35082,36974,38623,40367,41178,41770,41308,40597,38833,37032,34708,32836,30695,29133,27396,26236,25291,25648,26157,27214,28035,29313,30353,31912,33253,34989,36282,37694,38391,39046,38964,38748,37741,36746,35379,34647,33946,33663,32901,32216,31066,30134,28955,27864,26279,26191,27436,30128,33133,36108,37822,38596,38281,38024,37582,37526,37144,36761,35620,34268,32551,31217,29824,28787,27540,26641,25712,25285,24989,25386,26039,27375,28839,30903,33105,35688,38080,40738,42816,44371,44953,44910,43930,42388,40078,37621,34888,32331,29680,27406,25155,23649,22999,23275,23755,24686,25751,27184,28723,30611,32423,34345,35970,37421,38396,39170,39435,39400,38861,38177,37314,36752,36299,35856,35039,34042,32715,31337,29856,28136,26481,26507,28125,30884,33909,36533,38039,38439,38119,37732,37448,37346,37161,36747,35832,34718,33573,32668,31964,31406,30800,30270,29766,29359,29169,29324,29803,30610,31692,33045,34629,36258,38025,39946,41641,42925,43634,43625,43092,42021,40614,38933,37078,34994,32895,30833,29011,27672,27224,27287,27668,28152,28813,29511,30618,32004,33720,35518,37334,38807,40047,40855,41358,41381,41199,40782,40443,40009,39491,38421,37061,35187,33238,31128,28751,26709,26575,27668,29685,32021,34229,35375,35912,36045,36488,36955,37455,37439,37138,36201,35297,34397,33971,33471,33136,32529,32052,31391,31146,31128,31806,32599,33754,34768,36099,37241,38596,39948,41547,42512,43100,42617,41574,39773,37921,35809,34036,31956,30095,28018,26390,24877,24382,24363,24971,25451,26268,26815,27747,28632,29999,31219,32733,33781,34843,35270,35648,35448,35469,35249,35424,35191,35056,34306,33598,32222,30907,28742,26791,25845,26654,28124,30363,31911,32889,32557,32163,31491,31563,31572,32010,31959,31965,31310,31036,30506,30475,30075,29984,29409,29099,28355,28147,27753,28022,28140,28921,29517,30811,31761,33286,34672,36376,37362,38382,38378,38257,37138,36102,34463,33301,31698,30583,28974,27874,26785,26943,27024,27703,27977,28753,29123,30176,30932,32338,33278,34640,35315,36285,36493,36979,36686,36632,35678,34925,33514,32750,31739,31598,31152,31312,30882,30878,30195,29984,28684,27994,28253,30566,33183,36368,38207,39372,38721,37925,36458,35816,34861,34620,33638,32843,31136,30074,28704,28326,27557,27509,27009,27228,26917,27464,27748,29002,29880,31617,32923,35043,36511,38650,40284,42199,42870,43533,42816,42073,40056,38282,35658,33677,31083,29231,26857,25379,23846,24003,24113,25174,25775,27243,28227,30178,31658,34013,35613,37736,38809,40184,40391,40824,39970,39305,37628,36692,35328,34907,33714,33043,31435,30452,28751,27826,25838,25355,25912,28651,31501,35142,37251,38875,38617,38541,37607,37576,36828,36736,35481,34550,32547,31402,29763,29117,27813,27429,26360,26297,25714,26306,26523,27978,28944,30979,32496,34994,36665,39245,41002,43079,43689,44306,43330,42433,40041,38035,35021,32847,29922,27982,25446,24022,22517,22872,23009,24323,25039,26781,27902,30143,31707,34222,35848,38109,39163,40650,40814,41284,40390,39984,38613,38289,37239,36985,35577,34829,32983,31858,29740,28119,26086,26725,28071,31304,33892,36850,37763,38409,37625,37678,37038,37434,36839,36872,35602,35040,33613,33273,32159,32000,30930,30803,29773,29737,28990,29462,29321,30411,30871,32566,33611,35732,37261,40001,41657,43851,44442,45164,44343,43912,42157,41117,38895,37297,34555,32714,29958,28602,27043,26950,26227,26753,26576,27667,28245,30192,31514,34025,35565,37833,38771,40255,40438,41397,41365,42183,41661,41542,39968,38825,36209,34171,30526,28257,26738,27526,28217,30445,31527,32881,32743,33520,33578,34970,35479,36801,36823,37434,36873,37301,36706,36912,35854,35594,34253,33899,32633,32540,31662,31952,31366,31897,31545,32338,32202,33323,33659,34868,34869,35382,34414,34158,32811,32604,31589,31628,30544,30339,28995,28710,27842,28484,28327,29074,28647,29055,28396,28963,28795,29798,30017,31372,31705,32973,33162,34161,34045,34997,35062,36192,36100,36555,35572,35122,33272,32027,29159,27759,26915,28322,29536,31832,32593,33376,32264,31875,30747,31001,30542,31233,30768,30990,30101,30442,29972,30656,30352,30913,30290,30609,29977,30460,30192,31146,31170,32273,32510,33868,34186,35663,36230,37520,37474,37949,36928,36528,34813,33930,32155,31465,29885,29356,27989,27704,26989,28011,28350,29648,29984,31301,31646,33042,33604,35163,35672,36988,37181,38051,37673,38008,37096,36801,35198,34291,32380,31668,30395,30424,29671,29944,29277,29513,28753,28874,27582,27872,28899,32198,35207,38882,40562,41716,40672,39950,38186,37495,35987,35382,33538,32234,29765,28400,26524,26032,24950,25137,24746,25533,25664,27071,27939,30080,31546,34118,35864,38445,39820,41978,43031,44341,44054,43868,42057,40502,37558,35293,32219,30242,27645,26286,24379,23718,22869,23874,24574,26362,27450,29486,30686,32862,34216,36382,37500,39216,39655,40480,40014,39935,38576,37829,36237,35754,34702,34530,33329,32779,31161,30256,28489,27134,25125,25618,26833,29985,32797,36013,37369,38447,38025,38241,37786,38225,37708,37642,36224,35122,33071,31914,30102,29131,27424,26651,25320,25064,24480,25228,25720,27454,28803,31297,33285,36074,38088,40893,42501,44185,44369,44402,42923,41515,38886,36745,33734,31466,28609,26830,24683,23903,23320,24245,24805,26302,27232,29017,30293,32421,33918,36169,37643,39514,40277,41250,40963,40843,39675,39012,37714,37347,36430,36035,34694,33833,32176,31176,29511,28134,26760,27772,29570,32727,35261,37806,38565,38939,38223,38066,37452,37601,37039,36822,35697,35074,33933,33533,32611,32189,31077,30561,29496,29176,28566,28925,29056,30127,30890,32508,33790,35735,37369,39728,41294,42996,43436,43712,42870,42091,40428,39120,37079,35334,32959,31124,28874,27663,26718,26891,26867,27590,27943,28910,29653,31257,32665,34731,36317,38137,39104,40126,40289,40634,40450,40747,40492,40365,39326,38298,36378,34521,31833,29137,26829,26631,27244,29062,30860,32732,33419,34084,34409,35433,36335,37630,38262,38776,38396,38072,37282,36796,35801,34981,33679,32711,31466,30805,30133,30117,29968,30324,30570,31444,32223,33477,34721,36351,37340,38174,37932,37325,36036,34842,33444,32449,31199,30169,28847,27860,26825,26683,26989,27896,28573,29380,29693,30097,30305,30934,31486,32347,32971,33662,33955,34256,34115,34073,33965,34328,34680,35102,34931,34557,33611,32529,30982,28978,26923,26474,27196,29007,30878,32432,32870,32501,31607,30957,30570,30668,30840,31099,31018,30919,30757,30858,30999,31215,31159,31011,30599,30119,29610,29334,29242,29415,29770,30434,31305,32334,33453,34940,36250,37193,37656,37653,37205,36363,35217,33971,32682,31375,30113,28888,27714,26859,26790,27263,27900,28611,29415,30219,31227,32341,33597,34830,36032,36962,37667,37996,38066,37666,36933,35786,34632,33624,33034,32439,31861,31007,30173,29142,28270,27061,25861,25748,27423,30176,33667,36675,38874,39651,39590,38941,38396,37767,37363,36592,35595,33965,32373,30717,29477,28217,27250,26224,25665,25166,25259,25596,26651,27917,29783,31739,34221,36507,38980,41193,43303,44397,44960,44444,43492,41598,39428,36650,34095,31280,28923,26497,24681,22972,22494,22708,23838,25008,26809,28431,30544,32474,34793,36625,38583,39800,40915,41209,41410,40734,39901,38190,36559,34596,33421,32238,31562,30392,29562,28302,27577,26498,25573,24740,26098,28543,32419,35906,39041,40367,40831,40017,39460,38482,38049,37013,36123,34230,32583,30512,29320,27905,27241,26222,25947,25379,25594,25601,26614,27520,29357,30957,33357,35321,37763,39581,41941,43232,44473,44361,44091,42539,40919,38262,35972,33037,30753,27998,26026,23623,22308,21315,21861,22272,23785,25027,27202,28992,31606,33561,36082,37732,39723,40616,41758,41766,41947,40933,40170,38429,37380,35878,35267,33957,33179,31534,30484,28820,27917,26064,25852,26720,29829,32988,36766,39009,40678,40379,40154,38976,38620,37614,37264,35846,34868,33058,32302,31154,31055,30278,30315,29571,29734,29226,29824,30027,31396,32264,34186,35459,37599,38792,40804,41908,43416,43628,43992,42862,42110,40116,38730,36421,34881,32445,30878,28671,27628,26271,26598,26652,27870,28427,29989,30732,32482,33495,35471,36595,38455,39088,40250,40159,40591,39728,39459,38082,37641,36490,36411,35375,35123,33811,33294,31776,30992,28824,28153,28059,30088,31824,34676,36241,37673,37227,37400,36682,37084,36618,36922,35890,35464,33950,33535,32475,32619,31899,32228,31686,32172,31802,32648,32718,33912,34135,35300,35513,36804,37116,38546,39119,40396,40288,40520,39116,38268,36187,35126,33172,32152,30001,28773,26575,25489,23854,23938,23552,24403,24389,25403,25507,26840,27498,29460,30647,32868,33992,35908,36609,38018,38089,38789,38052,37991,36687,36387,35099,34713,33186,32574,30879,30107,28107,26558,24303,24586,25432,28338,30532,33249,33913,34470,33407,33308,32466,32912,32428,32796,31747,31370,29910,29659,28660,28747,27800,27766,26618,26458,25465,25814,25496,26546,26967,28860,30224,32874,34773,38031,40140,42765,43792,45072,44629,44378,42390,40834,37846,35399,31627,28654,24587,21747,18713,17582,16058,16125,15838,17150,18267,21167,23769,27785,31079,35291,38306,41951,44173,46788,47814,49067,48579,48202,46117,44463,41687,39996,37583,36172,33699,31965,29053,26951,23723,21136,18618,18986,20061,23085,25249,27734,28359,29143,28811,29702,30120,31851,32788,34493,34932,36068,36360,37741,38232,39339,39157,39447,38439,38060,36716,36271,35016,34740,33704,33696,32961,33145,32775,33539,33330,33799,33192,33265,32379,32262,31304,31249,30440,30487,29737,29830,29058,29260,29153,30212,30412,31330,31296,31976,31913,32867,33282,34663,35349,36791,37369,38647,39052,40006,39939,40306,39446,38833,37015,35736,33783,32895,31508,30984,29655,28976,27476,26806,25238,24426,24387,26962,30087,34331,37289,39698,40036,40029,38852,38260,37021,36349,34770,33509,31276,29728,27895,27258,26370,26408,26081,26630,26727,27771,28668,30658,32393,34895,36756,39109,40547,42222,43118,44151,43876,43465,41681,39803,36890,34283,31122,28795,26275,24761,23235,22746,22222,22990,24198,26599,28782,31593,33787,36276,38092,40204,41539,43020,43596,44135,43737,43379,42175,41063,39221,37540,35048,32861,30426,28908,27625,27435,27214,27633,27790,28418,28683,29051,29043,30658,33242,36919,40116,42941,44092,44109,42814,41507,39832,38573,36938,35468,33397,31635,29849,28851,28053,27927,27703,27960,28074,28646,29187,30350,31514,33167,34596,36314,37824,39515,40838,42438,43487,44265,44216,43584,42106,40423,38233,36221,34061,32188,30248,28757,27337,26465,26031,26539,27360,28622,29892,31363,32654,34187,35709,37482,39169,40858,42162,43237,43789,43969,43450,42519,41158,39796,38412,37093,35481,33704,31731,29803,27972,26171,24248,23404,24193,26199,28854,31618,33720,34748,35003,35099,35432,35972,36497,36603,36097,35034,33730,32351,31152,29984,28921,27785,26720,25607,24774,24229,24270,24733,25734,27038,28841,30797,32920,35070,37430,39289,40690,41161,40969,39966,38597,36815,35102,33131,31259,29137,27203,25133,23769,23104,23347,23681,24432,25086,26136,27253,28935,30561,32519,34148,35834,36983,38043,38463,38757,38343,37689,36186,34646,32776,31512,30307,29654,28707,28121,27196,26633,25792,25017,24222,25278,27500,31059,34355,37396,38950,39632,39003,38335,37169,36501,35480,34730,33185,31824,30065,29070,28085,27833,27168,27033,26549,26723,26773,27768,28679,30338,31719,33738,35371,37497,38999,41028,42167,43156,42868,42299,40574,38877,36295,34121,31419,29406,27047,25625,24015,23460,23110,24373,25602,27654,29176,31264,32667,34614,35825,37465,38237,39287,39307,39596,38883,38524,37232,36377,34575,33338,31533,30852,30036,30303,30008,30393,29969,30114,29411,29003,27729,28369,29844,33260,36307,39466,40777,41479,40372,39493,37805,36980,35452,34625,32733,31392,29266,28228,26839,26575,25739,25855,25352,25857,25812,27007,27904,30096,31780,34489,36464,39148,40760,43128,44318,45634,45300,44944,43046,41409,38477,36103,32762,30338,27265,25411,23130,22135,20869,21468,22073,24064,25553,28133,29891,32599,34378,36894,38212,40060,40588,41633,41398,41707,40736,40311,38511,37213,34800,33435,31575,31170,30116,30029,28921,28641,27396,27088,25462,25412,26114,29236,32237,36074,38173,39996,39670,39575,38315,37953,36584,36057,34304,33159,30849,29701,27968,27504,26270,26079,25122,25403,25002,26001,26604,28711,30239,33043,34992,37968,39796,42452,43987,45887,46018,46264,44641,43303,40410,38135,34707,32292,29071,27238,24960,24151,22923,23472,23891,25853,27174,29739,31380,34027,35693,38240,39515,41446,41925,42893,42451,42662,41505,41017,39245,38111,35739,34325,32155,31502,30332,30457,29682,30018,29369,29795,29011,28932,28643,30818,33072,36635,38800,41088,41187,41305,40024,39711,38480,38188,36667,35726,33429,32110,30108,29508,28289,28303,27571,28064,27778,28644,28834,30356,31254,33370,34713,37130,38554,40669,41709,43525,43923,44642,43598,42694,40326,38498,35603,33674,30945,29318,27054,26106,24599,24554,24421,25943,26971,29197,30647,32972,34331,36511,37726,39730,40633,42047,42141,42716,41966,41646,40005,38943,36892,35936,34476,34176,33107,32904,31858,31760,30871,30524,28864,28801,29205,31488,33411,36041,37213,38174,37373,37071,35956,35863,35008,34831,33548,32877,31403,30961,29966,30009,29311,29504,28981,29280,28858,29404,29368,30314,30596,31769,32285,33615,34044,35225,35715,36681,36473,36415,35070,34129,32250,31141,29474,28788,27534,27150,26201,26155,25781,26808,27725,29451,30398,31768,32148,33066,33233,34067,34144,34811,34693,35079,34698,34853,34245,34174,33203,32634,31339,30838,30121,30403,30195,30560,30146,30090,29257,28666,27036,26753,27426,29982,32686,35668,37256,38254,37601,36846,35440,34746,33728,33231,31997,31051,29533,28788,27976,28070,27888,28305,28263,28724,28756,29451,30023,31354,32403,33993,35154,36738,37684,38980,39756,40465,40182,39682,38215,36792,34683,32864,30685,29109,27386,26396,25386,25051,24745,25487,26564,28318,29802,31597,32906,34463,35589,36903,37692,38554,38812,39010,38672,38374,37592,36859,35645,34434,32682,31225,29859,29428,29176,29359,29294,29348,29012,28843,28210,27500,27614,29575,32606,36399,39507,41716,42380,42034,40861,39637,38282,37086,35562,33866,31725,29673,27774,26492,25464,24841,24358,24286,24458,25051,26024,27613,29510,31817,34237,36786,39172,41380,43379,45095,46041,46163,45349,43744,41537,38876,35944,32965,30111,27490,25225,23353,21921,20985,20945,21789,23242,25024,27099,29131,31222,33280,35427,37393,39186,40429,41267,41586,41615,41156,40507,39365,37867,35751,33524,31256,29610,28410,27806,27283,27126,26817,26809,26510,26246,26789,29109,32651,36985,40546,43267,44330,44379,43495,42514,41080,39691,37711,35535,32826,30457,28190,26720,25472,24842,24242,24328,24475,25368,26469,28399,30391,32959,35304,38017,40249,42550,44394,46273,47134,47595,46771,45461,43117,40700,37718,35106,32158,29799,27399,25892,24482,24080,24018,25177,26367,28274,29902,31952,33468,35413,36851,38647,39811,41131,41563,42096,41768,41575,40467,39479,37778,36731,35570,35165,34126,33396,31895,30713,29029,27686,25878,25881,26806,29479,32109,35177,37080,38671,39052,39783,39828,40353,39982,39754,38378,37225,35394,34320,32830,32063,30599,29812,28556,28243,27738,28554,29323,31232,32770,35153,36903,39262,40750,42862,44017,45211,44923,44334,42284,40443,37595,35431,32647,30683,28113,26551,24616,23884,23038,23788,24523,26410,27718,29789,30926,32666,33490,34928,35340,36287,36174,36539,35845,35697,34431,33703,32102,31584,30665,30853,30229,30299,29334,29021,27734,26862,25111,25341,26079,28836,31127,34003,35404,36669,36255,36377,35536,35687,34937,34870,33567,32876,31174,30473,29098,28782,27589,27410,26385,26308,25472,25865,25717,26884,27516,29477,30853,33310,34814,37283,38638,40438,40668,41113,39963,39178,37007,35534,33059,31589,29291,28146,26258,25539,24245,24647,24818,26349,27109,28861,29605,31343,32166,34004,34859,36522,36895,37899,37629,38034,37092,36853,35264,34333,32285,31467,30187,30401,29803,30154,29365,29376,28306,28046,26465,26778,27668,31002,34064,37774,39596,41176,40600,40312,38707,38081,36502,35844,33873,32618,30284,29180,27523,27287,26304,26532,25913,26446,26121,27114,27557,29522,30847,33463,35191,37858,39291,41619,42642,44014,43676,43510,41655,40269,37485,35493,32453,30552,27917,26667,24822,24379,23426,24127,24565,26490,27657,29909,31141,33263,34318,36279,37086,38622,38874,39807,39464,39779,38858,38581,36921,35899,33839,33090,31904,32091,31352,31358,30090,29517,27916,26913,25055,25541,26735,30312,33444,37052,38813,40337,40010,40123,39135,39026,37825,37249,35257,33784,31197,29632,27465,26461,24722,24168,22976,23030,22654,23833,24767,27313,29522,33002,35722,39134,41358,44195,45499,46846,46484,46078,43999,42117,38907,36276,32678,29983,26657,24614,22255,21372,20382,21233,22227,24735,26767,29780,31938,34893,36917,39579,41106,42942,43380,44041,43409,43162,41696,40619,38357,36686,34347,33234,31853,31614,30657,30423,29252,28859,27590,26925,26391,28025,30222,33978,36761,39692,40887,41844,41541,41679,40912,40657,39311,38216,35974,34306,32070,30886,29318,28638,27377,27047,26303,26599,26679,28040,29259,31583,33554,36340,38408,40934,42707,44834,45775,46620,45884,44969,42875,40930,38007,35638,32746,30670,28344,27036,25560,25195,24841,25768,26682,28494,29835,31772,33096,34900,36045,37637,38556,39786,40169,40715,40412,40328,39374,38586,37050,36049,34866,34585,33953,33727,32828,32166,30936,30160,28609,28160,28542,30659,33163,36011,37906,39396,39571,39723,39164,38853,38052,37480,36125,34834,33071,31855,30529,29918,29046,28614,27932,27766,27352,27571,27787,28657,29397,30658,31687,33153,34157,35493,36502,37578,37903,37846,36756,35500,33672,32070,30344,29160,27840,26990,26126,25782,25520,26010,26869,28468,29934,31518,32625,33702,34346,35070,35387,35825,35922,36106,35908,35767,35238,34680,33687,32621,31256,30247,29573,29524,29474,29515,29214,28818,28156,27165,25752,25509,26571,29060,32003,34736,36599,37521,37466,37058,36392,35857,35304,34699,33734,32531,31106,29805,28751,28002,27319,26752,26318,26064,26015,26305,27022,28154,29619,31352,33290,35284,37135,39000,40662,41834,42367,42133,41259,39810,37927,35750,33559,31319,29322,27471,25996,24737,24015,23887,24612,25828,27473,29175,30983,32573,34213,35629,37051,38097,38963,39344,39494,39104,38395,37126,35659,33860,32391,31265,30905,30621,30446,29792,28940,27781,26598,24949,24599,25679,28585,32264,36003,38759,40711,41356,41464,40907,40399,39536,38695,37148,35401,33101,31053,28941,27431,25883,24811,23724,23286,22945,23455,24376,26334,28603,31706,34760,38066,40773,43633,45655,47246,47594,47250,45637,43566,40449,37290,33630,30431,27136,24723,22425,21107,20022,20187,20935,22961,25111,27948,30332,33003,34979,37005,38149,39266,39359,39484,38824,38340,37051,35905,34136,32978,31754,31696,31659,32252,32065,31910,30804,30017,28141,27113,26957,28840,31378,34704,36984,38983,39374,39568,38826,38508,37580,37125,35876,34920,33183,32108,30669,30135,29257,29146,28543,28752,28447,28954,29147,30339,31241,33115,34594,36844,38373,40576,42064,43808,44303,44626,43424,42319,40061,38222,35595,33634,31022,29324,27261,26318,25124,25226,25288,26654,27601,29443,30501,32196,33088,34692,35505,37017,37601,38676,38675,39112,38436,38279,37228,37017,36320,36600,35964,35833,34522,33559,31593,29958,27475,26982,27037,29182,31053,33538,34713,35953,35944,36752,36808,37789,37832,38379,37583,37305,36125,35909,35020,34999,33926,33560,32242,31836,30717,30817,30421,31276,31605,33110,33993,35868,36917,38996,40020,41526,41540,41677,40430,39770,37969,37022,35120,34059,32119,31298,29790,29566,28879,29658,30032,31713,32596,34390,35080,36514,36863,38018,38137,39082,38762,38931,37742,37279,35849,35631,34748,34755,33477,32767,30643,29356,26825,25142,23642,24428,25457,28110,29748,31975,32517,33501,33388,34356,34502,35650,35563,36008,35067,34965,33803,33703,32698,32670,31619,31566,30513,30428,29454,29649,29110,29885,29984,31310,31738,33189,33835,35470,35883,36883,36293,36335,35185,34940,33704,33526,32362,32227,31168,31202,30367,30713,30321,31274,31393,32458,32372,33079,32628,33068,32480,32901,32313,32613,31717,31654,30549,30673,30284,31453,31760,32835,32369,32301,30785,29520,26889,26259,25897,27953,29781,32314,33244,34381,33861,34053,33230,33582,33068,33518,32758,32841,31874,31930,31138,31402,30579,30595,29572,29470,28413,28571,28128,29048,29405,31055,31942,33796,34803,36943,37862,39299,39226,39489,38327,37770,35988,34972,32907,31803,29869,29043,27430,27002,25913,26227,26250,27751,28597,30469,31360,33078,33827,35383,35870,37053,36969,37336,36401,36188,35140,35376,35209,36043,35596,35428,33644,32333,29498,27214,25269,25684,26871,29954,31958,34212,34824,35689,35473,36154,36082,36866,36602,36781,35680,35151,33659,33061,31724,31157,29696,29116,27839,27577,26896,27518,27904,29654,31086,33607,35272,37738,39342,41250,41787,42343,41369,40517,38332,36458,33613,31414,28344,26113,23485,22128,20700,20802,21009,22805,24585,27546,29979,33134,35297,37752,39048,40644,41052,41609,40905,40421,38896,38037,36688,36479,35883,35881,34812,33853,31807,30114,27276,25889,25371,27056,29444,32669,34769,36789,37359,38223,38415,39249,39394,39981,39518,39187,37967,37293,36057,35535,34399,33698,32237,31395,30028,29519,28860,29281,29623,31028,32263,34262,35792,38106,39682,41373,41894,42203,41407,40744,39198,37958,36059,34619,32747,31631,30287,29767,29052,29119,29095,29998,30697,32074,33018,34349,35075,36152,36691,37645,38046,38728,38615,38571,37755,37217,36343,36236,35948,35947,35214,34428,32854,31444,29080,27482,26831,27783,29504,31821,33361,34677,34923,35343,35504,36125,36433,36964,36785,36528,35880,35714,35435,35702,35646,35677,35263,35103,34628,34583,34463,34821,35036,35567,35901,36554,36975,37792,38352,38776,38415,37604,36113,34665,32964,31574,30175,29189,28178,27562,26996,26847,26805,27149,27653,28709,29839,31160,32137,32961,33347,33635,33657,33759,33696,33732,33620,33553,33249,32850,32252,31877,31871,32463,33156,33729,33783,33297,32313,30771,28769,27709,27756,28966,30725,32198,33074,33185,32757,32272,31893,31685,31585,31468,31230,30950,30717,30511,30384,30234,29981,29551,29100,28552,28102,27811,27915,28351,29246,30455,32037,33560,35133,36580,37834,38612,39044,38808,38189,36964,35458,33523,31641,29670,28047,26579,25622,24885,24772,24952,25872,27085,28731,30197,31737,32918,34179,35098,36138,36799,37510,37749,37980,37739,37567,36936,36289,35021,33687,31962,30771,29876,29879,29907,30177,29812,29333,28328,27175,25468,25307,26341,29312,32770,36157,38355,39827,39980,39942,39279,38920,38134,37508,36070,34610,32478,30636,28553,27182,25643,24775,23849,23713,23554,24427,25546,27798,30226,33492,36427,39596,42123,44833,46363,47497,47120,46166,43880,41371,37895,34624,30805,27714,24568,22585,20755,20153,19767,20685,21925,24432,26819,29911,32395,35220,37211,39406,40596,41861,42005,42199,41321,40599,38921,37497,35166,33325,30985,29759,28686,28982,29010,29704,29492,29593,28902,28405,27155,27771,29106,32431,35604,38841,40413,41481,40857,40345,38923,38143,36560,35460,33362,31728,29371,27989,26324,25804,24815,24829,24387,24990,25202,26649,27857,30263,32216,35124,37250,39751,41215,43062,43404,43759,42609,41547,39188,37231,34235,31987,29146,27443,25391,24659,23542,23692,23518,24645,25515,27717,29330,31794,33304,35503,36704,38558,39323,40638,40765,41407,40901,40971,39907,39388,37682,36621,34661,33835,32634,32724,32002,32010,30836,30294,28807,27912,26431,27294,28707,32325,35371,38817,40554,42148,42082,42533,41798,41743,40423,39512,37147,35447,32872,31528,29672,29109,27868,27813,27088,27501,27236,28368,28987,31011,32474,35195,37035,39685,41322,43734,44705,45969,45372,44850,42842,41362,38641,36734,33848,31965,29358,28119,26362,26136,25535,26530,27149,29196,30431,32628,33719,35700,36643,38480,39181,40620,40759,41518,40916,40884,39466,38680,36673,35650,33857,33543,32633,32814,31880,31684,30279,29896,28148,27766,27619,29594,31610,34755,36451,38574,38981,39963,39739,40295,39651,39767,38429,37656,35729,34905,33256,32887,31673,31501,30407,30517,29720,30090,29665,30480,30483,31705,32113,33657,34149,35696,36211,37440,37212,37259,35646,34693,32526,31342,29290,28408,26678,26153,24895,24924,24257,25018,25258,26932,27863,29859,30702,32347,32834,34167,34375,35534,35567,36450,36152,36625,35880,35861,34536,33893,32083,31310,29934,30008,29321,29504,28421,27999,26426,25380,23272,23443,24160,27270,30077,33540,35384,37257,37330,37852,37182,37335,36410,36197,34619,33617,31459,30290,28438,27817,26390,26019,24878,24885,24248,25043,25436,27319,28795,31609,33701,36627,38539,41199,42506,44078,43906,43711,41812,40080,36911,34390,30991,28669,25802,24285,22317,21771,21006,21941,22899,25499,27616,30684,32738,35423,36989,39107,39996,41260,41174,41460,40474,39942,38199,36939,34503,32730,30220,29039,27803,28139,28047,28794,28428,28631,27855,27357,26262,27381,29155,33009,36216,39489,40925,41993,41318,40917,39492,38796,37220,36215,34121,32612,30298,29022,27393,26893,25820,25724,25079,25467,25351,26435,27292,29429,31257,34199,36452,39297,41364,43831,44886,45896,45286,44553,42432,40464,37357,34790,31532,29140,26380,24719,22829,22175,21476,22256,23142,25304,27147,29783,31629,33923,35249,36885,37479,38313,38088,38138,37320,36978,35884,35344,33971,33017,31451,30849,30264,30948,31340,32228,32003,31817,30756,29625,27888,27972,28953,31923,34696,37561,39012,39937,39517,39292,38442,38227,37433,36927,35550,34526,32921,32015,30909,30540,29663,29329,28527,28336,27855,28251,28579,29964,31397,33744,35813,38383,40544,43004,44494,45790,45666,45113,43322,41370,38516,35926,32824,30304,27593,25728,23923,23192,22727,23497,24572,26626,28578,31125,33321,35832,37780,39873,41215,42535,42947,43306,42835,42366,41146,39896,37822,35884,33533,31935,30559,30078,29578,29441,28860,28594,27968,27318,26938,28223,30447,33865,36829,39500,40962,41789,41726,41608,40939,40421,39262,37950,36005,34232,32273,30916,29717,29084,28413,28336,28321,28833,29465,30763,32142,34048,35892,37960,39673,41392,42728,43885,44251,43972,42456,40374,37603,34777,31802,29221,26714,24716,23017,22066,21565,21934,22843,24595,26682,29149,31460,33765,35649,37296,38385,39187,39457,39443,38967,38275,37231,36077,34617,33106,31549,30439,29797,29679,29599,29415,28810,28069,26932,25514,24926,25804,28025,31155,34114,36571,38142,38825,38887,38662,38253,37742,37005,35943,34491,32775,31006,29407,28113,27066,26219,25542,25055,24689,24670,25115,26185,27770,29923,32287,34676,36836,