2012-04-12 04:00:04	31177,32744,34532,35572,36202,36001,35230,33431,31323,29073,27853,27775,29152,30771,32221,32693,32748,32405,32300,31978,31944,31895,32350,32874,33519,33538,33356,32687,32215,31782,31911,32097,32488,32144,31267,29650,29433,31384,34840,36887,36482,33628,30507,28495,28901,30830,33352,34585,34263,32317,30423,29415,30447,32672,35451,37193,37735,36787,35649,34642,34740,35430,36684,37410,37873,37665,37612,37474,37688,37580,37496,36934,36537,36052,36084,36170,36678,36789,36946,36772,36901,36960,37425,37587,37803,37428,36964,36004,35219,34341,34140,34105,34547,34740,35011,34950,35329,35666,36272,36279,35981,34972,34119,33141,32871,32884,33916,35597,37870,39457,40644,40682,39739,37272,34257,31005,29296,29398,31729,34571,36924,37286,36340,34376,32871,31894,32082,32642,33876,34916,36077,36564,36766,36041,35184,33906,33183,32764,33173,33485,33900,33336,32967,33493,35324,36449,36269,34159,32068,30965,31968,33876,35897,36230,35087,32364,29786,27959,28042,29193,31369,33042,34172,34072,33758,33079,33042,33056,33501,33480,33475,32928,32754,32543,32962,33157,33429,33033,32799,32322,32437,32570,33159,33383,33742,33458,33272,32717,32595,32396,32747,32806,33140,33031,33111,32840,32959,32848,33183,33254,33590,33477,33531,33092,32925,32428,32376,32185,32407,32292,32580,32625,33180,33531,34085,33897,33551,32499,31870,31434,31731,31890,32551,33154,34541,35687,36926,37740,38606,38120,36463,33145,29874,27536,27911,30174,33717,36089,36882,35541,33679,31712,31017,31051,32190,33345,34781,35543,36202,35923,35430,34229,33311,32345,32327,32478,33170,33301,33087,32212,32879,34590,36550,36449,34602,31678,30241,30521,32887,35211,36625,35714,33427,30210,28136,27308,28435,30200,32390,33519,34102,33667,33423,33041,33280,33160,33157,32461,32044,31569,31961,32422,33408,33711,33704,32751,31944,31030,30903,30641,30775,30424,30253,29730,29840,29945,30738,31224,31783,31520,31196,30282,29825,29253,29361,29448,30121,30366,30655,30183,29884,29278,29223,29029,29530,29833,30447,30354,30212,29498,29388,29266,29925,30375,30894,30543,30371,29912,30011,30057,30944,32010,33664,34478,35110,35132,35265,34470,33247,30895,28751,26898,26794,27744,29859,31483,32792,32807,32509,31525,31029,30658,31337,32079,33316,33841,34007,33011,32093,31012,30930,31055,31849,32117,32216,30973,29659,29392,31769,34495,36173,34867,32182,29015,27602,27959,30461,32794,34269,33421,31401,28717,27586,27898,30100,32229,33947,33950,33167,31470,30527,29982,30635,31302,32355,32800,33474,33637,34211,34423,35043,35230,35748,35794,36307,36501,37135,37450,38261,38656,39393,39574,39892,39526,39218,38197,37520,36539,36241,35950,36417,36589,37066,36913,36960,36534,36520,36289,36762,37038,37771,37972,38155,37508,36920,35754,35158,34651,35323,36517,38555,39815,40837,40940,40903,39726,37940,34847,32240,30601,31452,33567,36375,37698,37834,36305,34661,32969,32501,32564,33856,35101,36661,37390,37826,37113,36340,35035,34389,33808,34086,34195,34626,34097,33539,33445,35120,36646,37361,35779,33580,31496,31455,32743,35135,36396,36444,34343,31697,29004,28137,28574,30670,32539,34091,34180,33883,32978,32885,32844,33397,33427,33516,32964,32870,32655,33197,33468,33921,33557,33272,32541,32501,32387,32946,33241,33866,33748,33745,33153,32963,32543,32801,32769,33108,32866,32903,32600,32899,32942,33477,33501,33786,33503,33404,32735,32527,32076,32348,32593,33417,33762,34413,34589,35142,35037,34839,33751,32913,31958,31982,31970,32370,32404,33252,34204,35692,36680,37932,38127,37320,34459,31018,27585,26479,27618,31053,34204,36255,35804,34290,32098,30950,30422,31224,32106,33490,34352,35309,35449,35500,34630,33880,32780,32440,32248,32870,33058,33280,32393,31926,32555,34900,36414,36417,34041,31602,30167,31239,33365,35815,36367,35268,32315,29553,27485,27513,28598,30827,32588,33984,34062,33970,33389,33433,33331,33629,33258,32975,32121,31946,31959,32825,33369,33914,33475,33062,32288,32231,32279,33020,33290,33629,33183,32884,32265,32316,32279,32839,32960,33227,32908,32888,32541,32806,32854,33324,33388,33666,33329,33191,32607,32502,32192,32365,32223,32499,32397,32717,32848,33564,33912,34310,33703,33003,31929,31635,31458,31921,32125,33005,34030,35646,36821,38279,38892,38623,36273,32962,29233,27366,27595,30472,33798,36510,36853,35707,33370,31763,30776,31218,32086,33626,34761,35931,36144,36033,35015,34070,32894,32581,32483,33134,33406,33606,32755,32071,32319,34498,36356,36790,34691,32081,30171,30749,32750,35442,36585,36054,33424,30496,27869,27107,27749,29956,32083,33920,34285,34129,33387,33182,32930,33087,32575,31799,30103,28663,27455,27483,27993,29368,30475,31534,31669,31532,30655,30064,29215,28813,28326,28488,28518,28980,29108,29429,29352,29493,29147,29050,28675,28813,28916,29577,29967,30543,30430,30337,29821,29751,29707,30333,30868,31700,31791,31496,30376,29486,28604,28734,29390,30808,31787,32320,31691,31016,30120,30057,30603,32335,34155,35712,35852,35620,35054,34763,33879,32741,30728,28929,27581,27852,29162,31433,33185,34402,34430,34008,32967,32412,32054,32535,33001,33593,33420,33098,32423,32346,32422,33012,33307,33502,32731,31538,29826,29893,32259,36033,38235,37944,35037,31848,29702,30200,32666,36210,38366,38600,36764,34592,32993,33319,34794,36951,38212,38471,37300,35891,34663,34828,35914,37698,38942,39639,39267,38633,37668,37299,37279,37958,38498,39123,39042,38738,37917,37239,36437,36284,36354,37032,37638,38243,38104,37776,37089,36826,36462,36168,35420,34819,34209,34334,34658,35359,35845,36593,37096,37693,37708,37299,36006,34622,33326,32937,33042,34041,35622,37825,39641,41261,42082,41969,40136,37120,33104,29967,28751,30197,33139,36579,38577,38868,37212,34905,32750,32094,32859,34844,36390,37000,36400,35532,34715,34813,35288,35991,35760,34609,32855,31643,31009,31145,32121,34714,37409,38665,36927,33275,29690,28742,30624,34035,36326,36771,35180,32903,30920,30139,29909,30221,30441,30833,31418,32763,34112,34981,34518,33333,31825,31013,30986,31814,32463,32829,32621,32198,31532,31233,31283,32000,32756,33459,33522,33065,32022,31193,30631,30732,31274,32330,33149,33622,33148,32265,31369,31298,31802,32642,32972,33034,32914,33124,33326,33445,32914,32031,30884,30035,29690,30296,31390,32872,34061,34636,34132,33095,31848,31081,30741,30979,31357,31983,32658,33822,35032,36008,36601,37248,37464,36847,34832,32018,29487,28608,29627,32128,34399,35421,34832,33467,32131,31595,31704,32448,33405,34561,35714,36728,36770,35784,34088,32463,31329,31431,32793,34503,35049,34195,32508,31906,33614,36966,39483,39256,36097,32096,29390,29173,30899,33405,35175,35378,33932,31724,29670,28798,29241,30719,32577,34163,34778,34502,33564,32535,31805,31599,31501,31419,31350,31538,31897,32365,32679,32991,33332,33802,34003,33471,32318,31454,31373,32114,33153,33885,34009,33807,33558,33486,33673,33890,33722,33218,32691,32732,33496,34460,34890,34647,34040,33417,32783,32114,31383,30760,30555,30982,31624,31921,31761,31407,31134,30845,30176,28973,27478,26346,26601,28633,31844,35238,37758,38927,38773,37215,34401,30897,27653,25657,25540,27020,28919,29972,30047,29601,29170,29049,29507,30562,32145,33776,34912,34733,33135,30867,28930,27645,27459,28569,30818,33212,34509,33762,31051,27488,25961,28031,32274,35489,35698,33056,29625,27409,27469,29407,32005,33461,32754,30156,27329,25727,26310,28747,31921,34255,35288,34904,33125,30327,28328,28181,29696,31554,32865,33155,32783,31938,31242,31140,31963,32995,33577,33086,32018,31025,30675,30770,31199,31388,31414,31396,31792,32386,33081,33205,32901,32332,31998,31815,32061,32434,33017,33269,32936,31706,30351,29529,30036,31597,33771,35595,36690,36712,36379,35774,35420,35616,37015,39174,41276,41969,41512,40708,40596,40594,39862,37414,34216,31795,31761,33797,36861,39275,40441,39971,38551,36827,35898,35719,36451,37422,38420,38850,38874,38288,37913,37739,37630,36902,36033,35177,34966,35192,36562,38461,40031,39931,38297,35747,33929,33457,34557,35972,36990,36709,35605,34018,32990,32600,33004,33278,33706,34121,34772,35052,35186,35003,34923,34386,33718,32968,32895,33176,34116,35096,35863,35688,35008,33729,32657,31909,32318,33408,34850,35383,34959,33443,32181,31724,32562,33645,34577,34483,34195,33646,33078,32353,32395,32942,34013,34695,35028,34670,34415,33869,33384,32570,32055,31651,31936,32451,33539,34558,35466,35334,34373,32620,31315,30405,30355,30828,32079,33420,35057,36257,37591,38761,39552,38441,35458,30960,27258,25644,27180,30688,34878,37362,37761,36054,33972,32282,31945,32232,33119,33774,34546,34976,35514,35531,35431,34633,33695,32652,32484,32670,33371,33658,33550,32883,33549,35114,36796,36594,34881,32575,31538,31874,33760,35431,36391,35396,32910,29826,28262,27792,28510,29636,31214,32113,32550,32193,32217,32634,33814,34385,34314,33242,32285,31461,31479,31643,32132,32016,31929,31550,31814,32414,33526,34061,34407,34004,33794,33517,33659,33740,34468,34812,34754,33698,32655,31415,31040,31106,31825,32132,32408,32122,32023,31688,31943,32080,32307,31950,31724,31176,31158,31183,31688,31831,32283,32535,33237,33600,33951,33585,33268,32728,32722,32364,32110,31644,31951,32356,33009,33234,33949,34173,33680,31612,29229,27065,26875,28293,30890,32451,32701,31013,28855,26745,26101,26451,28004,29561,31474,32705,33519,33316,32898,31618,30295,28788,28257,28271,29366,30325,30941,29876,28662,28714,31063,33162,33672,31630,29303,27840,28560,30258,32408,33045,32224,29684,27084,24982,24924,26352,29274,31879,33812,33935,32896,30566,28773,27611,27798,28297,29368,29980,30706,30886,31329,31442,31861,31808,32109,32005,31994,31339,30960,30551,30911,31115,31726,31801,31799,31061,30589,30055,30503,31072,32071,32402,32942,33053,33478,33599,34034,33644,32839,31360,30701,30451,31420,32965,35176,36131,35852,34194,33179,33070,34687,36667,38930,40039,40421,39755,39812,40524,42049,42300,40906,37182,33210,30323,30746,33564,37939,41094,42311,40716,37909,34518,32743,32576,34301,36129,37971,38624,38821,38094,37683,37289,37730,37838,37828,36639,35216,33423,33361,34747,37304,38728,38808,36900,34457,31936,31375,32219,34507,36325,37453,36682,35191,33060,31972,31756,33014,34154,35113,34659,33884,32664,32409,32638,33868,34792,35771,35754,35491,34544,34052,33405,33407,33164,33315,33091,33402,33490,34060,34068,34225,33804,33690,33162,33166,32965,33305,33295,33609,33414,33413,32848,32929,33054,33732,33863,34122,33717,33634,33183,33109,32572,32461,32042,32300,32594,33722,34620,35585,35253,34354,32575,31418,30599,31029,31685,33128,34371,35927,36807,38021,38767,39153,37520,34618,30675,28080,27367,29636,32901,36101,36959,36077,33729,32177,31328,31909,32586,33616,33998,34672,34994,35730,35783,35638,34558,33677,32574,32407,32332,32871,32812,32455,31663,32765,34736,36679,36337,34605,32215,31489,31959,33847,35204,35758,34277,31982,29080,27551,27216,28730,30572,32617,33318,33496,32848,32748,32684,33408,33623,33820,33111,32617,31925,32070,32135,32711,32709,32793,32325,32344,32148,32638,32800,33219,32966,32829,32150,32002,31688,32061,32251,32855,32863,33099,32774,32899,32745,33110,33130,33565,33433,33490,32997,32822,32287,32304,32076,32402,32387,32761,32765,33350,33629,34208,33932,33474,32325,31781,31261,31598,31794,32613,33482,35093,36177,37485,38245,38710,37421,34987,31327,28576,27071,27998,29847,31999,32494,31902,30039,28904,28437,29414,30521,32023,32687,33250,32956,32704,31797,31119,29965,29437,28979,29392,29606,30034,29540,28819,28010,29321,31596,33749,33393,31535,28880,27837,28238,30248,31772,32437,30965,28811,26413,25580,26010,28172,30301,32212,32520,32048,30662,29911,29343,29709,29891,30347,30248,30512,30387,30777,30909,31502,31632,31940,31590,31541,31060,31029,30810,31131,31079,31386,31224,31443,31287,31554,31500,31961,31945,32140,31729,31542,31001,31136,31263,32104,32567,33218,33102,32907,31834,30975,29830,29527,29740,31234,32698,34174,34263,33778,32648,32263,32205,33489,35177,37391,38354,38581,38197,38734,39156,39426,38037,35819,33191,32464,33574,36659,39499,41441,41104,39506,36758,34848,33930,34898,36459,38425,39231,39524,38834,38328,37594,37572,37378,37627,37275,36979,35946,35324,35468,37441,39201,40027,38576,36215,33473,32376,32633,34527,36247,37422,36758,35303,33159,32081,31849,33097,34442,35919,36201,36070,35139,34626,34153,34446,34454,34728,34429,34445,34247,34658,34797,35205,34920,34664,33989,33852,33557,33876,33940,34361,34269,34344,33886,33847,33553,33765,33659,33883,33693,33878,33657,33845,33757,34036,33872,33965,33504,33327,32757,32652,32338,32619,32596,32959,32987,33529,33876,34540,34393,34031,32917,32237,31615,31817,31976,32706,33286,34619,35787,37331,38458,39386,38482,36076,32085,28689,26729,27806,30655,34394,36586,37154,35689,33901,32022,31414,31333,32220,33084,34346,35046,35811,35807,35561,34434,33524,32531,32483,32556,33074,32978,32675,31809,32513,34289,36331,36283,34529,31697,30448,30917,33309,35500,36667,35487,33140,30031,28105,27373,28477,30148,32291,33407,33989,33598,33436,33202,33635,33684,33781,33157,32653,31937,32080,32348,33139,33344,33431,32799,32482,32071,32405,32652,33234,33294,33389,32892,32718,32315,32479,32560,33085,33152,33384,33073,33068,32860,33138,33156,33483,33264,33228,32786,32614,32194,32284,32162,32535,32689,33170,33346,33883,33959,34052,33381,32824,32089,32007,31760,32003,32093,33026,34319,36177,37514,38826,38893,37782,34846,31445,28290,27325,28392,31554,34635,36726,36566,35287,33153,31782,30994,31442,32211,33666,34766,35910,36189,36061,34994,33976,32775,32450,32386,32910,33018,32939,31498,30024,29431,30525,31343,31297,29793,28881,29145,31351,33888,35673,34842,31963,27504,23893,21977,22844,25284,28764,31257,32513,31890,30692,29244,28765,28693,29298,29501,29656,29334,29518,29690,30363,30684,31063,30830,30637,30023,29914,29832,30310,30579,31034,30820,30607,30018,29935,29885,30460,30889,31505,31411,31353,30924,30766,30319,30337,30204,30646,31056,31856,32255,32650,32154,31418,30122,29277,28742,29380,30457,32168,33142,33361,32401,31397,30338,30471,31425,33574,35485,36618,36280,35954,35565,35555,34693,33036,30284,28155,27105,28194,30381,33079,34680,35310,34459,33350,32281,32356,33074,34574,35554,36140,35738,35310,34821,35161,35638,36600,37035,37150,36315,35308,34727,36593,39613,42201,42093,39640,35677,32719,31492,32776,35127,37641,38566,38086,36127,34373,33319,33954,35448,37559,38717,39074,38226,37210,36054,35700,35522,35858,35905,36049,35826,35961,35969,36386,36471,36516,35964,35488,34785,34683,34682,35179,35424,35778,35564,35449,34984,34887,34722,34981,35060,35392,35267,35210,34713,34277,33462,33045,32667,32964,33301,33953,34300,34909,35168,35441,34984,34287,33180,32531,31968,32161,32477,33420,34638,36509,38061,39680,40398,39901,37271,33515,29508,27413,27629,30421,33902,36809,37516,36696,34643,32959,31828,31844,32240,33263,34099,35114,35684,36132,35788,35170,33966,33134,32507,32645,32873,33303,32958,32351,32204,33778,35586,36523,35231,33036,31135,31233,32798,35149,36292,35942,33650,30869,28364,27516,27955,29807,31726,33437,34028,34072,33543,33431,33324,33582,33464,33269,32624,32298,31993,32332,32673,33177,33154,33123,32705,32618,32513,32840,32994,33306,33155,33067,32673,32543,32339,32561,32644,32994,32987,33061,32860,32962,32904,33180,33217,33460,33397,33450,33109,32929,32454,32300,32104,32326,32397,32740,32784,33083,33302,33761,33785,33640,32806,32166,31670,31761,31849,32376,32944,34209,35482,36836,37846,38783,38512,36976,33781,30344,27757,27598,29541,32996,35748,36954,36095,34380,32411,31435,31205,31955,32943,34307,35295,36107,36054,35568,34442,33496,32637,32547,32654,33127,33188,32899,31979,32323,34004,36214,36771,35369,32613,30742,30468,32237,34495,36157,35828,33924,30884,28523,27344,28015,29722,31999,33430,33951,33176,31916,30326,29319,28651,28683,28773,29255,29801,30715,31335,31822,31504,30955,29990,29196,28419,28368,28613,29370,29856,30225,29957,29628,28963,28688,28557,28883,29157,29689,29882,30126,30135,30421,30607,30902,30787,30627,29996,29557,29314,29803,30482,31501,32020,31998,30975,29738,28442,28115,28661,30280,31869,32920,32555,31535,30177,29638,30005,31615,33598,35513,36125,35958,35281,34845,34225,33316,31340,29180,27414,27243,28429,30795,32850,34210,34157,33378,32129,31534,31572,32547,33602,34553,34623,34108,32985,32212,31782,32235,33026,34036,34298,33958,32653,32138,33678,37009,39540,39964,37780,34945,32859,32954,34788,37713,39762,40192,38398,35588,32857,31891,32611,34786,36995,38622,38887,38394,37369,36852,36657,36976,37073,37083,36591,36314,36080,36390,36784,37289,37238,37027,36365,35842,35378,35455,35573,35861,35757,35671,35336,35254,35206,35556,35753,36052,35913,35596,34785,34139,33387,33135,33146,33688,34190,34780,34978,35283,35352,35439,35011,34437,33544,32973,32440,32437,32675,33641,35023,36960,38650,40256,40904,40064,37039,33030,29179,27364,28047,31174,34807,37505,37886,36598,34388,32712,31832,32113,32743,33740,34554,35385,35786,36041,35628,34987,33959,33231,32723,32875,33031,33264,32823,32171,32298,34127,36028,36725,35164,32753,31003,31356,33142,35396,36291,35470,32928,30147,28008,27643,28611,30652,32516,33836,34055,33855,33328,33235,33289,33618,33584,33420,32817,32414,32117,32264,32469,32901,32981,33030,32825,32839,32814,33060,33086,33189,32992,32836,32538,32535,32466,32750,32916,33171,33097,33043,32736,32698,32657,32928,33130,33479,33499,33490,33096,32766,32297,32133,31986,32278,32491,32850,32947,33228,33397,33747,33670,33377,32606,31977,31485,31519,31591,32076,32829,34296,35745,37174,38195,38916,38272,36183,32682,29311,27209,27707,30235,33744,36182,36882,35601,33687,31826,31025,31099,32033,32952,33692,33578,32851,31359,29867,28657,28527,29244,30812,32249,33081,32507,30763,28485,28055,29588,31850,32557,31373,28966,27402,27369,29008,30849,31953,31196,29111,26405,24612,24421,26162,28630,31024,32141,32094,30959,29746,28761,28698,28992,29492,29574,29593,29425,29654,30024,30803,31428,31883,31672,31213,30434,30009,29834,30154,30423,30764,30790,30930,30915,31027,30984,31202,31284,31518,31452,31381,31095,30912,30522,30461,30574,31239,32023,32954,33244,32956,31844,30553,29240,28669,28936,30477,32380,34039,34338,33558,32131,31155,30830,31908,34039,36611,37793,37517,36527,36373,36906,37590,37078,35300,32581,30777,30882,33328,36792,40070,41500,41108,39175,37186,35900,36038,36870,38039,38594,38471,37510,36595,35974,36309,36969,37843,38225,38181,37247,36204,36061,37599,39443,40413,39342,37031,34409,33017,33124,34724,36553,37851,37525,36051,33963,32593,32314,33434,34906,36255,36675,36401,35512,34902,34535,34756,34968,35195,35031,34926,34779,35063,35270,35508,35310,34992,34369,34041,33846,34089,34342,34687,34644,34551,34146,33892,33629,33711,33792,34124,34235,34410,34359,34341,33992,33678,33036,32586,32127,32097,32234,32761,33101,33554,33811,34211,34325,34293,33630,32895,32115,31801,31736,32184,32768,33991,35418,37122,38701,39944,39533,37303,33343,29428,26984,27348,29907,33637,36308,37190,36110,34287,32476,31650,31516,32170,32977,34081,34999,35809,35882,35544,34625,33755,32971,32847,32921,33294,33287,32891,31846,31781,33221,35549,36577,35676,33237,31340,30978,32660,34871,36380,35902,33783,30687,28352,27286,27994,29698,31871,33318,33979,33632,33220,32933,33271,33613,33934,33596,33096,32411,32144,32152,32682,33028,33279,33029,32771,32411,32518,32705,33186,33347,33381,33002,32719,32355,32418,32531,32910,33070,33239,33006,32876,32565,32578,32656,33031,33206,33480,33447,33471,33267,33133,32809,32729,32501,32519,32388,32440,32383,32658,32870,33442,33822,34056,33596,32899,31942,31572,31554,31977,32335,33033,33910,35282,36397,37609,38507,38771,37295,34458,30719,27959,27202,29173,32438,35622,36893,36361,34416,32472,31034,30875,31452,32784,34123,35436,36134,36431,35842,34760,33063,31519,30200,29547,28964,28766,28438,28279,28906,31519,34654,36643,35663,32500,28768,26781,26958,29066,31112,31919,30602,28147,25499,24282,24677,26701,29029,30897,31350,30953,29904,29345,29166,29516,29644,29742,29437,29346,29284,29756,30335,31069,31219,31192,30737,30362,29951,30120,30433,30977,31000,30843,30423,30367,30373,30766,30929,31151,31095,31218,31218,31457,31400,31417,31172,31038,30692,30801,31063,31799,32486,33135,32982,32232,30632,29269,28394,28742,30036,32209,33797,34298,33293,31941,30757,30738,31672,33799,35895,37065,36556,35760,35272,35559,35478,34577,32261,29603,27584,27805,29849,33014,35509,36696,35966,34466,32908,32712,33793,35981,37823,38935,38713,37985,37043,36749,36920,37771,38365,38625,37870,36594,34952,34870,36571,39236,40571,39875,37276,34726,33136,33555,35191,37417,38723,38756,37129,35123,33354,32994,33732,35416,36762,37551,37194,36440,35516,35166,35028,35328,35370,35487,35309,35383,35408,35808,35954,36096,35717,35306,34695,34499,34383,34726,34950,35246,35164,35107,34671,34448,34159,34221,34220,34510,34655,35044,35057,34999,34478,33929,33036,32454,31966,32159,32581,33355,33852,34532,34909,35246,34893,34166,32987,32269,31802,32000,32341,33120,34063,35604,36904,38308,39290,39674,38324,35527,31589,28543,27343,28888,31976,35313,36931,36831,35193,33485,32120,31804,31983,32814,33609,34625,35352,36005,35945,35538,34451,33488,32658,32590,32793,33374,33412,32979,32109,32609,34330,36260,36351,34741,32256,31058,31579,33718,35608,36383,35096,32602,29698,27970,27583,28894,30756,32717,33717,33986,33428,33129,32996,33439,33674,33825,33413,33002,32352,32214,32309,32810,33001,33225,32972,32794,32478,32605,32761,33224,33315,33413,33074,32851,32462,32469,32423,32743,32825,32967,32808,32839,32715,32931,32960,33158,33119,33253,33151,33294,33193,33308,33203,33260,33037,32989,32632,32534,32367,32504,32471,32748,32896,33397,33692,33926,33496,32886,32006,31780,31849,32314,32546,33097,33803,35097,36151,37373,38273,38638,37276,34624,31000,28288,27398,29178,32245,35407,36756,36362,34523,32709,31308,31141,31610,32826,34022,35300,35957,36262,35634,34710,33471,32754,32372,32758,33092,33497,33217,32500,31822,32944,34925,36560,36025,33930,31384,30440,31191,33494,35430,36114,34692,32133,29106,27161,26240,26649,27527,28838,29653,30212,30247,30739,31349,32182,32231,31720,30348,29069,28072,28111,28661,29643,30038,30156,29690,29388,29126,29483,29787,30253,30149,29973,29504,29417,29332,29720,29920,30231,30175,30266,30079,30200,30207,30458,30383,30520,30581,31018,31034,30975,30516,30368,30303,30870,31394,32140,32361,32244,31237,30134,28935,28619,28964,30265,31598,32828,32870,32209,31107,30622,30587,31567,32952,34841,35969,36289,35827,35628,35186,34636,33020,30864,28447,27298,27591,29664,32089,34196,34818,34385,32970,31820,31171,31806,33011,34529,35137,34996,33820,32733,31933,32153,32825,34025,34663,34814,33866,32700,32481,34758,37746,39950,39579,37454,34786,33635,34180,36434,38588,39739,38689,36241,33127,31414,31488,33695,36536,39134,40045,39647,37981,36474,35421,35490,35852,36573,36781,36922,36707,36825,36853,37189,37075,36897,36207,35683,35075,35080,35158,35693,35967,36258,36006,35751,35121,34915,34745,35105,35389,35934,35940,35819,35069,34378,33503,33146,32896,33287,33632,34291,34692,35290,35507,35739,35229,34528,33469,32899,32430,32645,32902,33749,34856,36522,37922,39493,40352,40201,37902,34267,30159,27786,27665,30260,33707,36692,37575,36858,34837,33171,31994,31977,32323,33201,33874,34907,35605,36199,35936,35345,34143,33343,32652,32656,32723,33096,32939,32529,32123,33416,35362,36748,35853,33614,31231,30899,32357,34936,36465,36409,34210,31357,28673,27694,28157,30044,31940,33672,34306,34443,33903,33489,32934,32980,32986,33310,33281,33300,32875,32793,32479,32317,31795,31609,31435,31983,32595,33586,34120,34439,33949,33360,32465,32135,31847,32034,32146,32658,32935,33427,33352,33055,32274,31964,31791,32423,33161,34139,34495,34530,34087,34062,33585,32908,31867,31417,31256,31952,32762,34061,33800,31204,28285,29119,32393,35454,35896,34349,31499,29549,29257,31320,34365,37654,39185,39139,37964,36958,35222,32768,29435,27065,26233,27906,30977,34667,36938,37430,35790,33628,31384,30341,30093,30940,32188,34344,36112,37057,36206,34426,31877,30016,29042,29831,31450,33542,34585,34398,32934,32568,33234,34366,34121,32915,31055,30128,30149,31772,33836,35611,35371,33681,30875,28756,27749,28553,30163,32248,33380,33946,33913,34029,33481,32666,31496,31341,31782,32683,32703,32317,31521,31446,31621,32187,32153,32066,31742,32120,32457,32929,32732,32724,32331,32305,31862,31907,32121,33011,33173,33099,32335,31126,29888,30307,31464,33537,34804,34861,33791,33278,32822,33013,33583,34877,35203,34491,32552,30644,28856,28298,28396,28861,28652,28557,28672,30064,31365,31862,30302,27797,25596,25960,28130,31399,34538,37809,39199,38083,33902,28546,23773,22294,23672,26258,27773,28805,29389,29838,29214,28870,28199,27505,26851,27626,29115,31541,33635,35070,34954,34469,34170,34993,35817,36348,34873,32373,30276,30679,33314,37438,39866,39519,35881,31203,27047,25805,27786,32261,35695,36569,34137,30672,27426,25788,24973,25347,26819,30225,33758,35662,33761,29518,25242,23676,24790,28365,31719,33743,33856,33586,32839,32659,32571,32839,32694,33107,33570,34248,34483,35345,36320,37273,36893,35760,33685,32019,30764,30614,31132,32701,33824,34358,33972,33866,33784,34579,35550,37063,38174,39270,39784,40361,40361,40369,39924,39617,38579,37193,35192,34185,34534,36821,39200,41144,41574,41332,40097,38529,36219,34230,32794,33083,34093,35655,36286,36024,34536,33172,31948,32116,33284,35644,37746,39515,40036,40103,39339,38554,37451,36991,36746,37244,37579,37810,37098,37062,37974,39915,40679,39759,36755,33712,31682,32180,34056,36421,37428,37024,34805,32298,29924,29102,29519,31300,32827,33827,33632,33390,32947,33030,33109,33804,34120,34374,33938,33667,33345,33745,34067,34633,34616,34573,34151,34009,33565,33741,33829,34033,33658,33492,33049,33209,33495,34359,34799,35176,34707,34155,33088,32469,31936,32146,32356,32966,33097,33363,33155,33081,32631,32710,32849,33511,33776,33930,33396,32987,32242,31972,31696,32052,32339,32998,33074,33105,32673,32617,32247,32022,31493,31810,32631,34573,36565,38793,40524,41614,40146,36309,30723,26285,24303,26032,30021,35016,38205,39022,37143,34458,31586,30037,29583,30666,32096,33913,34998,35777,35576,34991,33601,32392,31313,31486,32312,33982,35146,35549,34124,32723,32333,33652,34732,34879,33447,32397,32252,33819,35840,37780,37914,36426,33101,29834,27497,27480,29059,31933,34215,35727,35756,35356,34530,34099,33217,32388,31091,30648,30924,32245,33440,35106,36307,36867,35953,34544,32789,32363,32958,34503,35403,35635,34487,33400,32463,32517,32795,33512,33631,33827,33221,32604,32184,33135,34196,34994,34778,34844,34535,33672,31497,29573,28058,27966,28700,30206,30977,31360,30859,30376,29539,29401,29489,30094,30187,30288,29816,29607,29230,29753,30592,32216,33594,35010,36112,37943,39201,39408,37049,32965,28210,25896,26796,30653,34232,36018,34980,32455,29219,27849,28166,29678,30948,32558,33633,34268,33583,32314,29935,28219,27906,29694,31356,32131,31376,30694,30062,30460,31940,34786,36852,37378,35126,31898,29198,29425,31788,35212,36805,35891,32307,28598,25890,25919,27963,31358,33761,34757,33686,32089,30081,28969,28466,29246,30311,32094,33084,32941,31010,29115,27948,28832,30589,32622,33570,34162,33914,33800,33354,33362,32968,32654,31509,30132,28629,28749,29957,31834,32517,32425,31575,31295,31107,31751,31957,31599,29488,26978,24695,24732,26609,29539,31432,32552,32308,31535,30059,29502,30032,32581,35701,38466,38573,36934,34716,34284,34823,35808,35533,34420,32456,32120,33678,37113,39979,41346,40237,38070,35097,33250,32948,34952,37387,39866,41006,41117,39934,39078,37953,37468,37249,37955,38282,38475,37692,37177,37347,38711,39100,38102,35042,32131,30341,30659,31835,34198,36375,37979,37543,36181,34024,32481,31420,31887,33022,35068,36656,38250,39289,40516,40523,39536,37491,36138,35492,36500,37921,39503,39723,39096,37281,35719,34547,34523,34364,34308,33621,32870,31309,30149,29271,29673,30512,32089,33169,34073,34141,34308,33875,33763,33353,33431,33481,33981,33414,32256,30398,29681,29888,30941,31348,31671,31183,31011,30981,32257,34418,38115,41083,42294,40534,36824,32395,30059,29661,31368,33593,36093,37849,39954,40886,39830,35758,30796,26579,25748,28123,33178,37352,39056,37104,33592,29818,28194,28576,31073,33637,35757,36092,35777,34742,33983,32753,31669,30227,29730,29644,30624,31555,32546,32078,30593,28893,29450,31487,34074,34740,34125,32894,33336,35163,38016,39389,38975,36077,32575,29374,28521,29422,31888,33961,35688,36140,36163,35424,34875,33494,32044,30299,29514,29124,30018,31394,33395,34302,34276,32895,31793,30898,31301,32041,33381,34030,34355,33611,32889,31919,31787,31666,31717,30859,30174,29335,29545,30198,31740,32889,34045,34357,34760,34693,34902,34661,34765,34257,33672,32506,32199,32477,33889,34871,35562,34877,33932,32753,32668,32832,33663,33899,34142,33817,33696,32956,32770,32918,34513,36410,38654,40113,41049,40084,37853,34208,31026,28919,29517,31786,35108,37124,37626,36066,34253,32407,31900,31888,32690,33189,33992,34214,34668,34496,34318,33402,32717,31712,31428,31167,31576,31669,31891,31298,31869,33536,36018,36876,36072,33557,31860,31385,32995,34918,36509,35956,33948,30433,27275,24774,24292,24956,27024,28881,30696,31497,32054,31765,31574,30686,29968,28839,28274,27758,28195,28624,29599,29952,30212,29616,29269,28652,28707,28676,29260,29571,30092,29907,29983,29621,29675,29462,29759,29740,30099,29979,30264,30152,30410,30234,30497,30244,30272,29967,30274,30420,31124,31483,32135,31932,31413,30010,29040,28146,28461,29281,30969,32008,32563,31763,31023,30136,30318,30993,32868,34668,36396,36710,36639,35674,34764,33066,31334,28956,27485,26964,28339,30307,32853,34198,34666,33679,32649,31416,31343,31671,32974,33910,34644,33991,32999,31608,31310,31462,32592,33379,33958,33089,31698,30068,30912,33726,37305,38563,37444,34194,31561,30280,31718,34390,37593,38945,38612,36338,34293,33007,33852,35388,37304,37922,37773,36449,35579,35006,35731,36614,37771,37975,38018,37320,37121,36871,37369,37577,38054,37828,37772,37216,37115,36784,37027,36921,37203,36932,36916,36427,36405,36145,36573,36743,37197,36866,36430,35314,34822,34364,34722,34977,35698,35908,36373,36248,36428,36099,36005,35359,34998,34053,33610,33157,33659,34575,36606,38300,40177,41118,41194,39047,35733,31547,28914,28197,30342,33500,36704,37714,37101,34761,32777,31271,31303,31759,32960,33605,34383,34531,34880,34506,34197,33182,32572,31860,31938,31942,32520,32478,32243,31682,32764,34388,35945,35390,33722,31544,31176,32249,34691,36108,36277,34299,31777,29163,28210,28331,29963,31565,33239,33763,33915,33229,33083,32839,33172,33072,33212,32765,32654,32174,32334,32349,32840,32787,32957,32544,32537,32277,32593,32640,33130,33075,33237,32821,32737,32329,32492,32370,32810,32864,33239,33112,33324,33063,33247,33006,33090,32666,32557,32046,32108,31932,32345,32477,32985,33001,33450,33467,33734,33276,32898,32064,31892,31541,31780,31832,32760,33932,35817,37251,38935,39404,38598,35566,31876,28213,26974,28055,31526,34865,37101,36704,35058,32581,31180,30620,31530,32562,34087,34969,35855,35902,35806,34723,33588,31865,30711,29623,29388,28980,28960,28277,28382,29781,32967,35311,35891,33467,30216,27408,27078,28260,30440,31235,30687,28362,26169,24482,24766,26044,28432,30120,31172,30765,30121,29147,29101,29154,29730,29766,29972,29605,29722,29680,30245,30416,30830,30671,30780,30406,30489,30310,30630,30606,31002,30930,31208,31036,31169,30870,31019,30862,31152,31059,31262,30972,30996,30622,30817,30816,31371,31687,32378,32388,32337,31459,30696,29573,29327,29563,31093,32481,33646,33400,32710,31382,30827,30748,32126,33979,36099,36711,36756,36236,36344,36034,35338,33130,30740,28520,28468,30118,33414,36212,38066,37813,36771,35142,34737,35396,37542,39396,40840,40672,39733,37877,36601,35661,35920,36317,37133,37246,37248,36343,36168,37032,39263,40695,40873,38838,36390,34043,33576,34409,36553,38144,38961,37874,36036,33697,32602,32556,34105,35698,37255,37480,37072,35805,35055,34415,34659,34783,35195,35040,35118,34892,35234,35292,35574,35243,35018,34328,34145,33855,34199,34356,34844,34714,34651,34000,33802,33524,33842,33938,34474,34564,34879,34630,34488,33794,33399,32644,32413,32064,32275,32366,32925,33120,33673,33910,34489,34493,34383,33439,32718,31807,31641,31610,32288,32920,34416,35785,37410,38579,39606,38997,36986,33218,29602,27074,27383,29809,33719,36418,37412,36053,34037,31924,31199,31204,32305,33320,34574,35212,35823,35617,35328,34323,33552,32713,32711,32802,33405,33431,33215,32107,31955,33099,35371,36325,35611,33168,31395,30953,32670,34714,36295,35781,33826,30745,28539,27366,28114,29672,31886,33304,34118,33673,33171,32616,32940,33309,33913,33793,33627,32920,32531,32103,32341,32428,32858,32787,32853,32587,32776,32787,33221,33250,33406,33069,32918,32464,32505,32424,32824,32930,33222,32999,32969,32601,32712,32731,33190,33347,33721,33494,33387,32866,32635,32152,32132,32003,32387,32532,32925,33005,33486,33672,34022,33610,33038,32073,31739,31517,31862,32008,32748,33770,35412,36535,37744,38400,38586,37100,34451,30830,28307,27498,29375,32425,35513,36661,36187,34180,32376,31073,31100,31708,33084,34233,35450,35918,36072,35357,34539,33326,32786,32493,32988,33334,33637,32997,32033,31346,32756,35019,36760,35986,33409,29948,27769,27209,28577,30196,31488,31197,30166,28521,27454,26928,27576,28373,29382,29691,29819,29526,29747,29975,30492,30374,30005,29065,28507,28140,28696,29391,30357,30763,30939,30434,30133,29699,29757,29808,30241,30362,30660,30470,30367,29960,29939,29881,30340,30541,30918,30884,30977,30779,30874,30639,30609,30385,30580,30709,31264,31598,32225,32365,32218,31234,30163,28903,28574,28993,30534,32067,33212,32942,32107,30875,30429,30681,32105,33838,35667,36140,35816,35170,35222,35155,34777,33000,30522,27929,26989,27745,30249,32760,34615,34860,34199,32817,32015,31875,32976,34279,35426,35415,34748,33443,32665,32368,33105,34096,35288,35610,35259,33734,32634,33414,36491,39319,40448,38870,36257,33844,33202,34089,36300,38071,38727,37446,35263,33066,32499,33423,35783,38021,39387,38903,37473,35538,34438,34213,35182,36329,37434,37600,37416,36858,36685,36593,36874,36820,36746,36222,35819,35382,35502,35688,36198,36314,36295,35802,35451,35031,35112,35244,35754,36043,36274,35832,35239,34233,33582,33190,33470,33862,34535,34903,35377,35586,35767,35398,34920,34077,33551,33044,32968,32984,33667,34766,36577,38130,39573,40368,40351,38515,35352,31460,28752,28155,30219,33463,36546,37722,37106,35131,33291,32024,32009,32557,33657,34588,35488,35927,36247,35901,35278,34217,33419,32832,32968,33196,33562,33363,32641,31882,32773,34628,36272,35995,34116,31862,31168,32124,34285,35811,35930,34124,31490,28890,27736,28013,29662,31583,33278,33926,33949,33399,33066,32939,33276,33468,33629,33328,32998,32558,32492,32495,32779,32804,32837,32613,32594,32546,32859,33017,33248,33124,32968,32608,32498,32391,32611,32734,32936,32858,32831,32574,32545,32537,32832,33046,33373,33420,33547,33385,33258,32908,32649,32221,32116,32070,32344,32520,32795,32909,33301,33573,33831,33569,32980,32095,31633,31452,31739,32033,32617,33494,34943,36205,37481,38452,38808,37610,35000,31367,28445,27321,28787,31897,35201,36834,36559,34673,32592,31091,30798,31348,32684,34064,35297,35880,35957,35383,34605,33585,32913,32574,32805,33131,33462,33185,32404,31724,32712,34784,36484,36155,34055,31494,30335,31090,33396,35514,36337,35064,32412,29453,27670,27422,28841,30944,32991,34070,34223,33604,33056,32742,32916,33113,33183,32833,32433,32082,32243,32727,33381,33627,33498,32861,32325,32035,32337,32875,33518,33684,33525,32991,32507,32159,32257,32513,32944,33150,33171,32955,32826,32721,32937,33125,33283,33222,33174,32976,32826,32562,32502,32524,32685,32689,32713,32604,32734,33034,33516,33727,33657,33098,32470,31897,31513,31127,30950,30941,31378,31945,32714,33820,35209,35799,34966,32435,29181,26593,26031,27452,29951,31920,32482,31495,29859,28395,27816,28066,29047,30315,31607,32547,33031,32751,31912,30822,29927,29372,29409,29725,30137,30125,29398,28469,29143,31529,34083,34753,33019,30080,27907,27478,28958,31242,32904,32882,31212,28697,26736,26191,27419,29794,32178,33343,33116,31815,30379,29498,29501,30057,30794,31124,31086,30884,30849,31027,31457,31859,32079,32004,31758,31522,31453,31384,31406,31487,31588,31646,31723,31808,31992,32121,32218,32225,32139,31954,32019,32425,33086,33645,33704,32961,31665,30287,29575,30028,31667,33801,35478,35914,35272,34163,33296,33274,34505,36737,39127,40501,40825,40927,41274,41428,40672,38556,35595,33194,32683,34245,36941,39128,39640,38479,36396,34514,33882,34748,36624,38626,39897,40006,39109,37677,36420,35880,36160,36966,37797,38137,37726,36590,35703,36223,37766,38999,38798,37055,34669,32934,32739,34030,35969,37454,37649,36437,34397,32526,31730,32246,33639,35173,36105,36149,35513,34660,34041,33876,34033,
2012-04-12 04:01:04	34291,34482,34561,34584,34708,34899,35013,34922,34514,33892,33388,33170,33375,33872,34365,34588,34459,34031,33566,33257,33171,33321,33591,33721,33671,33495,33340,33237,33226,33269,33441,33638,33795,33855,33826,33703,33596,33431,33229,33001,32768,32507,32388,32437,32680,32970,33312,33665,34023,34112,33795,33073,32320,31856,31876,32145,32555,33110,34014,35215,36744,38448,39704,39340,36852,32768,28742,26473,27066,30084,33993,36825,37521,36155,33911,31882,30826,30814,31646,32816,34130,35203,35893,35986,35482,34498,33506,32746,32494,32666,33015,33123,32790,31908,31835,33367,35561,36555,35483,32894,30741,30339,31937,34364,36131,36016,34033,31031,28445,27260,27828,29560,31718,33316,33943,33687,33169,32798,32926,33201,33418,33269,32879,32411,32318,32489,32880,33161,33215,32888,32502,32233,32402,32840,33339,33534,33456,33005,32525,32145,32086,32299,32777,33117,33305,33177,32939,32636,32557,32580,32878,33181,33471,33548,33513,33227,32971,32670,32472,32354,32366,32349,32495,32602,32836,33157,33638,33852,33677,32916,32122,31579,31556,31730,32139,32633,33635,34972,36418,37829,39081,39147,37522,34217,30430,27641,27224,29195,32735,35850,37230,36453,34456,32252,30990,30759,31555,32834,34325,35477,36248,36232,35638,34544,33478,32658,32406,32255,31930,30936,29383,27359,26516,28024,31354,34269,35217,33748,31313,29357,29051,29920,30952,30896,29508,27095,25064,24198,25072,27136,29576,31091,31342,30369,29170,28352,28371,28839,29599,30010,30087,29782,29600,29562,29940,30330,30729,30792,30696,30392,30305,30212,30346,30507,30674,30494,30317,30053,30082,30235,30595,30883,31229,31297,31358,31214,31080,30867,30871,30771,30789,30659,30658,30752,31274,31879,32533,32583,32070,30881,29640,28652,28701,29650,31401,32939,33642,33070,31986,30848,30508,31098,32891,35148,36941,37115,36548,35895,35636,35208,34232,32095,29609,27645,27475,29038,31826,34229,35564,35291,34064,32519,31846,32203,33655,35116,36107,36047,35452,34605,34452,34840,35855,36780,37379,36994,35987,34518,34497,36547,39588,41267,40514,37402,33931,31487,31135,32542,35205,37516,38676,38042,36466,34747,34115,34608,36292,37983,39147,39113,38394,37229,36525,36195,36432,36651,36877,36768,36817,36830,37166,37384,37535,37182,36808,36200,35843,35525,35610,35706,36002,35926,35834,35490,35322,35115,35217,35231,35494,35531,35501,35009,34433,33565,33078,32831,33146,33545,34190,34601,35122,35269,35285,34738,34100,33252,32804,32444,32608,32917,33902,35283,37201,38977,40711,41204,39814,36147,31781,28148,27153,28854,32641,36173,38167,37687,35845,33508,32089,31618,32256,33112,34268,35054,35760,35943,35907,35212,34461,33561,33192,33073,33443,33613,33730,33002,32265,32502,34333,35962,36372,34690,32559,31290,32053,33914,35948,36393,35233,32552,29904,28001,27842,28823,30847,32668,33976,34156,33938,33382,33334,33362,33662,33572,33453,32908,32639,32367,32584,32775,33145,33069,33071,32766,32764,32717,33016,33094,33320,33098,32973,32620,32575,32464,32738,32801,33019,32897,32927,32718,32812,32764,33091,33210,33457,33324,33304,32910,32735,32368,32323,32174,32373,32334,32532,32449,32660,32830,33383,33546,33595,32935,32327,31702,31647,31557,31925,32306,33473,34822,36455,37805,39054,38817,37073,33589,29967,27310,27300,29442,33082,35873,37016,35900,33919,31722,30697,30565,31594,32865,34433,35373,36050,35858,35360,34261,33384,32529,32511,32699,33297,33414,33140,31926,31664,32877,35246,36453,35865,33441,31417,30605,31848,33846,35698,35726,34239,31366,28952,27474,27825,29208,31477,33141,34168,33933,33411,32718,32763,32901,33350,33198,32966,32326,32154,32095,32720,33127,33534,33217,32855,32202,32183,32310,33036,33393,33584,33059,32678,32111,32114,32152,32646,32850,33194,32990,32932,32564,32602,32575,33012,33139,33486,33371,33395,33043,33010,32701,32735,32472,32524,32359,32509,32356,32605,32730,33318,33586,33829,33292,32807,32048,31897,31726,32004,32190,33161,34315,35941,37155,38551,39070,38560,36024,32673,29208,27676,28226,31083,34157,36471,36563,35311,33156,31728,30914,31432,32349,33862,34854,35474,34764,33397,31066,29079,27603,27674,28658,30765,32388,33335,32457,30979,30078,31033,32092,32368,30619,28446,26820,27370,29089,31365,32178,31471,28925,26272,24133,24045,25337,27952,30193,31748,31640,30906,29588,28943,28646,29234,29687,30277,30155,30198,30055,30420,30571,31007,30880,30855,30400,30305,30062,30390,30454,30904,30928,31069,30717,30743,30536,30701,30500,30631,30482,30732,30686,31054,31054,31310,31218,31469,31462,32055,32359,32658,31950,31009,29549,28906,28833,30167,31782,33496,33876,33469,32048,31046,30365,31120,32714,35360,37050,37534,36645,36175,35904,36111,35122,33237,30323,28502,28414,30959,34312,37613,38948,38762,37126,36024,35778,37300,39125,40919,41210,40518,38582,36943,35584,35573,36082,37241,37755,38048,37328,36556,36107,37659,39771,41615,41205,39274,36219,34196,33447,34728,36431,38199,38386,37393,35103,33398,32549,33530,35023,36865,37617,37671,36501,35502,34482,34454,34590,35270,35438,35816,35689,35965,35947,36240,35923,35712,34912,34546,34132,34450,34643,35261,35280,35399,34894,34639,34067,34112,33986,34417,34536,34956,34854,35002,34584,34365,33512,32946,32186,32150,32118,32799,33215,33936,34225,34786,34750,34746,33937,33300,32428,32248,32031,32529,32841,33946,35108,36781,38126,39704,39868,38599,35120,31156,27708,27060,28813,32699,36000,37763,36884,34930,32451,31318,31027,32032,33039,34383,35051,35775,35699,35598,34762,34128,33174,32978,32860,33416,33537,33620,32602,31869,32120,34310,36091,36551,34581,32334,30802,31638,33541,35791,36219,35119,32245,29666,27786,27888,28883,30753,31944,32957,32998,33078,32798,33148,33229,33649,33537,33760,33559,33541,32785,32118,31012,30763,30783,31607,32136,33158,33730,34664,35217,35955,35802,35825,35848,36723,36695,35550,32589,29779,27861,28549,30719,33760,35508,36063,34848,33557,32171,31894,31903,32820,33550,34667,35138,35626,35263,34853,33786,33207,32461,32331,31784,31303,31090,33032,35406,37138,36195,33756,30763,29609,30058,32334,34157,34822,32922,29849,26009,23569,22608,23985,26323,29321,31128,32205,31926,31507,30590,30136,29225,28753,28005,27834,27549,28056,28462,29332,29565,29955,29750,29781,29396,29555,29410,29705,29593,29936,29917,30270,30089,30297,30124,30287,30023,30195,29986,30257,30133,30377,30209,30438,30245,30581,30534,30804,30589,30766,30549,30814,30736,31140,31163,31466,31193,31323,31082,31271,31135,31451,31353,31604,31313,31406,31192,31411,31234,31517,31422,31821,31834,32188,32077,32381,32238,32530,32415,32626,32380,32549,32294,32582,32750,33683,34460,35648,36146,36470,35657,34683,33332,32979,33359,35601,38288,40993,41887,41537,39558,37656,36085,36251,37218,39038,40374,41813,42231,42174,40667,38402,35134,32835,31916,33633,36361,39305,40415,40079,37878,35556,33306,32646,33071,35081,37016,38822,39186,38836,37385,36185,34954,34818,34934,35709,35947,36034,35304,35644,36595,38107,38310,37407,35004,33085,31840,32491,33834,35729,36482,36408,34693,32825,31016,30744,31369,33189,34488,35377,34933,34292,33284,33114,33004,33533,33614,33890,33632,33837,33815,34382,34464,34567,33838,33272,32436,32515,32752,33700,34200,34640,34112,33583,32570,32296,32144,32736,33048,33670,33619,33682,33196,33116,32780,33042,32964,33260,33088,33263,33047,33271,33122,33425,33362,33645,33519,33775,33574,33713,33371,33310,32842,32774,32354,32477,32317,32654,32705,33260,33508,34124,33997,33711,32672,32103,31558,31918,32194,32936,33438,34561,35497,37197,38675,39752,38601,35686,31212,27802,26338,28230,31798,35818,37706,37548,35140,32673,30667,30408,30943,32506,33824,35365,36019,36333,35611,34771,33413,32767,32326,32803,33212,33869,33678,33207,31916,31928,33265,35514,36191,35231,32630,30966,30724,32602,34684,36197,35466,33398,30344,28321,27440,28513,30225,32483,33732,34302,33650,33080,32460,32796,33043,33532,33298,33127,32527,32588,32645,33256,33388,33486,32851,32499,32031,32373,32724,33457,33553,33664,33080,32777,32263,32398,32451,33017,33099,33351,33042,32972,32543,32613,32506,32980,33123,33521,33418,33552,33242,33307,33013,33060,32774,32855,32602,32757,32542,32723,32645,33067,33270,33868,33836,33698,32825,32248,31685,31920,31994,32459,32758,33872,35037,36645,37959,39306,39086,37290,33584,29876,27161,27295,29569,33335,36122,37347,36206,34344,32183,31189,30918,31833,32855,34357,35324,36170,36057,35587,34313,33382,32502,32563,32818,33519,33603,33540,32429,31841,32331,33894,34115,32647,29322,26711,25815,27764,31083,34568,35699,34427,30738,26870,23965,23611,24956,27669,29872,31328,31192,30498,29330,28969,28810,29195,29097,28992,28455,28580,28908,29899,30504,30963,30596,30238,29456,29190,29079,29639,29986,30520,30451,30455,29971,29777,29476,29785,29920,30366,30381,30533,30309,30461,30432,30881,30909,30879,30275,30039,29901,30565,31216,32228,32674,32698,31535,30132,28491,27842,28034,29651,31493,33184,33342,32723,31497,30876,30713,31890,33591,35708,36590,36566,35855,35617,35233,34752,32984,30663,28259,27504,28359,31028,33837,36209,36933,36601,35346,34711,34703,35974,37607,39488,40409,40634,39671,38583,37470,37211,37225,37739,37767,37562,36465,35217,34593,36162,38543,40701,40781,39207,36574,34796,34239,35498,37164,38657,38640,37529,35397,33845,33167,34036,35427,36985,37502,37355,36287,35381,34638,34700,34866,35362,35379,35466,35300,35506,35586,35907,35700,35450,34789,34440,34062,34289,34457,34927,34987,35018,34625,34445,34003,33866,33641,33887,34079,34512,34591,34871,34780,34682,34070,33507,32644,32211,31856,32130,32461,33171,33604,34247,34531,34824,34507,33942,32900,32267,31780,31967,32302,33031,33783,35104,36256,37731,39006,39743,38552,35698,31568,28278,26903,28481,31836,35529,37311,37077,35065,32958,31385,31124,31520,32641,33654,34761,35445,35946,35712,35183,34104,33274,32651,32793,33146,33758,33726,33182,31941,31840,33276,35547,36388,35332,32816,31044,30943,32856,35053,36415,35694,33429,30343,28175,27324,28301,30116,32283,33655,34228,33782,33300,32866,33031,33283,33638,33458,33173,32606,32450,32470,32887,33056,33207,32934,32778,32562,32720,32882,33302,33374,33407,33077,32792,32357,32321,32381,32845,33131,33448,33448,33510,33283,33230,33028,33017,32881,32883,32659,32616,32440,32509,32521,32784,32855,33107,33228,33592,33777,33841,33307,32700,32003,31789,31730,32030,32401,33424,34774,36370,37740,38999,39165,37919,34913,31299,28217,27295,28766,32118,35257,36993,36535,34820,32714,31433,30976,31581,32597,33936,35052,35948,36110,35793,34798,33750,32841,32608,32742,33298,33580,33581,32762,32004,32444,34406,36033,36139,34274,31971,30650,31330,33286,35471,36234,35212,32623,29875,27882,27587,28656,30673,32581,33916,34134,33824,33257,33046,33035,33213,33089,32863,32411,32232,32331,32854,33282,33599,33399,32998,32505,32344,32436,32880,33166,33327,33199,32987,32646,32560,32547,32812,32979,33082,32898,32709,32425,32408,32540,32930,33281,33646,33725,33699,33416,33130,32788,32574,32342,32354,32416,32595,32701,32837,32928,33257,33540,33733,33497,32946,32199,31840,31804,32090,32414,32941,33770,35018,36098,37166,38149,38587,37596,35098,31580,28625,27493,28829,31806,34924,36533,36283,34558,32566,31154,30855,31465,32778,34185,35374,36007,36009,35334,34340,33304,32639,32462,32763,33187,33469,33206,32344,31676,32595,34670,36279,35761,33158,29869,27732,27541,29123,31158,32435,32194,30632,28614,27141,26692,27318,28540,29689,30171,29968,29362,29034,29157,29575,29907,29842,29360,28845,28584,28792,29384,30079,30471,30396,29847,29238,28902,29032,29587,30335,30807,30861,30600,30227,29939,29857,29980,30189,30278,30208,30235,30465,30779,31079,31190,31022,30746,30499,30518,30938,31593,32098,32187,31669,30687,29568,28783,28701,29561,31052,32560,33340,33044,32095,31131,30496,30703,31976,34046,36062,37093,37011,36511,36020,35473,34369,32419,29922,27926,27327,28497,30853,33410,35024,35275,34208,32645,31516,31492,32483,34080,35355,35749,35144,34060,33126,32974,33599,34800,35886,36310,35699,34354,33372,34751,38193,41662,42962,41395,37854,34433,32639,33079,34977,37156,38318,37985,36324,34513,33606,34171,35652,37346,38314,38364,37585,36672,36028,36138,36620,37198,37344,37127,36605,36287,36161,36384,36601,36619,36209,35633,34945,34613,34618,35015,35405,35767,35725,35537,35165,34956,34807,34979,35191,35496,35388,34936,34136,33402,32728,32585,32798,33389,33929,34456,34788,35175,35262,35065,34349,33531,32682,32243,32080,32436,33156,34560,36209,38021,39547,40610,40045,37600,33575,29723,27380,27816,30504,34204,36832,37595,36329,34323,32458,31630,31632,32384,33233,34278,35090,35784,35937,35670,34742,33778,32888,32697,32948,33579,33836,33631,32530,31961,32874,34941,36208,35761,33516,31514,31060,32695,34951,36556,36165,34198,31246,28803,27514,27956,29356,31378,32928,33884,33967,33859,33568,33681,33808,34043,33847,33480,32787,32429,32228,32528,32846,33251,33212,33140,32796,32772,32815,33193,33348,33525,33234,33010,32697,32746,32714,32961,32968,33108,32960,32916,32692,32775,32774,33094,33242,33508,33496,33595,33438,33475,33259,33218,32947,32891,32631,32660,32511,32614,32579,32834,33018,33601,33890,34065,33548,32851,31955,31750,31719,32114,32441,33270,34288,35712,36748,37988,38713,38555,36532,33387,29782,27795,27929,30480,33712,36350,36831,35739,33527,31774,30701,30933,31804,33437,34813,36039,36412,36320,35333,34281,33074,32605,32510,33068,33393,33672,33063,32244,32039,33727,35746,36866,35591,33143,30805,30465,31836,34423,36086,36306,34337,31534,28730,27519,27676,29473,31523,33458,34152,34145,33381,33029,32767,33052,33086,33131,32591,32287,31939,32334,32849,33601,33629,33428,32603,32162,31847,32301,32741,33456,33499,33407,32760,32405,32011,32259,32389,32853,32876,32982,32657,32526,31985,31664,30985,30566,29865,29562,29194,29622,30207,31274,31806,32131,31550,30939,29958,29466,28932,28940,28863,29381,29661,30102,29995,30001,29486,29203,28771,29133,29441,30086,30447,31446,32374,33617,34350,35142,35051,34307,32120,29698,27344,26559,27027,28915,30530,31749,31724,31464,30857,30812,30684,31109,31341,32004,32407,33032,33010,32906,32087,31498,30743,30748,30855,31514,31471,31080,29630,28889,29810,32829,35171,35742,33637,30798,28250,27845,29060,31645,33319,33612,31767,29437,27289,27149,28411,31027,33064,34231,33547,32253,30442,29640,29416,30265,30958,31888,32116,32437,32313,32607,32639,33074,32955,32965,32495,32463,32290,32810,33193,34089,34620,35390,35667,36209,36291,36850,37270,38268,38970,39799,39793,39742,39002,38300,36889,35634,34212,33864,34006,35347,36885,38802,39723,40043,39060,37918,36314,35437,35034,36242,38043,40264,41291,41858,41574,41212,39610,37323,34059,31723,30801,32402,34853,37545,38474,37999,35911,33982,32318,32307,33154,35122,36717,38110,38245,37983,36788,35850,34819,34724,34721,35341,35428,35505,34636,34425,35057,36884,37660,37202,34924,32813,31443,32261,33967,36163,36825,36172,33732,31353,29378,29348,30348,32395,33817,34785,34403,33930,33127,33123,33100,33532,33342,33380,32957,33146,33270,33980,34097,34224,33483,32952,32242,32404,32642,33545,33888,34216,33651,33128,32266,32256,32309,33042,33360,33842,33655,33628,32964,32738,32300,32501,32528,33058,33110,33478,33312,33485,33270,33539,33435,33719,33507,33583,33190,33147,32668,32646,32303,32479,32352,32663,32600,33109,33326,33983,33949,33785,32802,32299,31798,32172,32280,32735,32781,33603,34389,35852,37186,38868,39179,38053,34630,30840,27607,27176,29069,32952,36008,37567,36481,34456,32062,31042,30832,32011,33208,34744,35511,36136,35790,35414,34355,33708,32959,33020,33061,33673,33663,33653,32612,31893,32158,34394,36133,36611,34620,32215,30455,31142,33024,35546,36395,35622,32860,30093,27802,27566,28468,30642,32397,33814,33844,33641,32872,32888,32993,33687,33687,33614,32722,32279,31878,32422,32828,33554,33460,33354,32700,32604,32500,33126,33364,33746,33362,33087,32390,32312,32171,32685,32705,32783,31986,31113,29596,28765,28139,28571,29102,30214,30824,31547,31400,31250,30412,29867,29119,29083,28823,29067,29051,29442,29256,29314,28971,29258,29329,29728,29509,29459,28871,28913,28943,29617,30085,31154,32031,33412,34257,35366,35752,35559,33717,31304,28270,26442,25851,27251,29082,31137,31947,32280,31710,31388,30836,31005,31009,31592,31947,32699,32815,32915,32249,31841,31149,31071,30999,31624,31779,31736,30425,28915,28324,30699,33920,36285,35527,32906,29414,27556,27593,29996,32428,33968,33090,30990,28282,27185,27611,29971,32412,34315,34187,32970,30829,29597,29106,29949,30924,32229,32687,32999,32620,32614,32494,33027,33298,33909,34002,34311,34283,34692,34770,35267,35424,36035,36453,37407,38101,39172,39651,40041,39527,38846,37511,36586,35539,35169,34690,34793,34803,35590,36481,38042,39138,39914,39488,38759,37280,36202,35261,35531,36642,38945,40725,41985,42077,41909,40809,39266,36546,33952,31868,31877,33328,35947,37754,38561,37547,35958,33972,32944,32599,33633,34995,36846,37935,38465,37748,36854,35582,34974,34514,34884,35224,35803,35503,34842,34018,34839,36249,37510,36854,35164,32920,32066,32556,34584,36197,36957,35680,33429,30670,29195,28968,30490,32305,34151,34730,34626,33706,33267,32950,33351,33508,33745,33371,33284,33058,33441,33617,33933,33586,33225,32451,32296,32284,32967,33435,34003,33833,33642,32953,32631,32287,32577,32747,33283,33334,33475,33151,33070,32713,32799,32682,32954,32961,33195,33052,33214,33093,33352,33340,33619,33519,33608,33201,33009,32497,32385,32153,32416,32447,32782,32815,33226,33477,33975,33809,33471,32527,31990,31610,31928,32173,32812,33334,34493,35545,37080,38418,39360,38296,35595,31475,28097,26595,28252,31651,35477,37402,37332,35303,33068,31151,30649,30945,32163,33399,34861,35690,36272,35927,35267,34045,33235,32570,32761,33019,33528,33421,32967,31836,32020,33574,35790,36406,35165,32521,30849,30738,32644,34825,36260,35578,33474,30392,28174,27185,28083,29864,32136,33477,34077,33597,33110,32673,32956,33192,33567,33286,32876,32193,32105,32230,32883,33036,32899,31972,30919,29511,28563,27829,28013,28475,29418,30130,30895,31035,31110,30668,30272,29566,29128,28525,28363,28175,28357,28445,28915,29126,29512,29533,29583,29185,28940,28636,28988,29436,30260,30793,31278,30989,30371,29170,28381,28089,28896,30037,31287,31428,30815,29725,29336,29325,30175,31392,33208,34505,35201,35154,35275,34932,34262,32565,30326,27777,26478,26643,28587,30920,33067,34066,34217,33240,32178,31213,31170,31689,32885,33756,34268,33727,32852,31838,31537,31603,32239,32591,32726,31955,30629,29009,29429,32048,35485,36939,35708,32322,29119,27300,28098,30600,33642,35189,34693,32203,29727,28511,29691,32369,35600,37617,38213,37106,35623,34570,35047,36446,38332,39385,39617,38812,37824,36821,36510,36393,36613,36586,36621,36499,36743,36975,37542,37868,38164,38032,37931,37505,37369,37253,37553,37789,38118,37934,37598,36821,36133,35424,35189,35013,35188,35197,35466,35811,36524,36892,36968,36314,35530,34513,33959,33710,34326,35555,37542,39221,40576,41165,41036,39452,36840,33388,30571,29330,30626,33463,36672,38351,38227,36416,34317,32493,31891,32162,33337,34654,36015,36731,37054,36557,35761,34644,33892,33392,33563,33846,34265,34150,33470,32540,33123,34758,36320,36148,34398,32060,31118,31848,34019,35853,36411,34979,32451,29661,28112,27927,29213,30995,32802,33715,33994,33601,33334,33201,33467,33576,33655,33294,32921,32489,32487,32614,33039,33119,33086,32724,32581,32501,32823,33039,33360,33365,33286,32903,32691,32443,32558,32686,32981,33052,33128,32878,32739,32535,32654,32838,33253,33450,33698,33561,33363,32921,32646,32298,32273,32251,32421,32437,32513,32537,33041,33583,34107,34049,33536,32581,31883,31387,31481,31782,32467,33409,34841,36149,37661,38913,39321,37832,34745,30757,27846,27141,29200,32676,35907,37169,36509,34464,32457,31148,31033,31645,32912,34166,35370,36072,36306,35788,34980,33860,33043,32624,32880,33312,33745,33534,32748,31986,32835,34843,36553,36291,34279,31763,30642,31435,33731,35754,36396,34988,32333,29478,27792,27561,28869,30818,32714,33711,33831,33242,32778,32601,32877,33124,33187,32797,32365,31965,32070,32485,33095,33329,33220,32655,32184,31938,32208,32657,33218,33370,33245,32777,32379,32113,32245,32440,32768,32893,32935,32833,32830,32791,32971,33130,33312,33271,33108,32698,32392,32097,32111,32281,32613,32792,32966,33058,33372,33618,33716,33373,32827,32110,31636,31414,31599,32018,33025,34460,35892,36611,36569,35377,32931,29458,26156,24144,24603,27434,31578,34987,36187,34674,31609,28595,26911,26672,27619,28946,30309,31456,32381,32776,32582,31579,30219,28998,28513,28723,29538,30197,30359,29580,28579,28899,31025,33240,33827,32165,29584,27647,27437,28808,30903,32204,31902,30093,27797,26085,25957,27376,29725,31845,32916,32622,31516,30251,29565,29598,30137,30532,30562,30214,29956,30082,30658,31333,31823,31913,31724,31310,30986,30892,31076,31285,31469,31476,31374,31201,31162,31211,31353,31387,31316,31181,31210,31374,31788,32366,32984,33261,32837,31681,30370,29386,29262,30261,32162,34084,35117,34846,33716,32433,31862,32561,34554,37111,39212,39959,39743,39653,40195,40757,40399,38732,36359,34582,34538,36291,38946,40976,41232,39633,37033,34658,33608,34220,36063,38145,39560,39868,39300,38378,37692,37494,37703,38022,38179,37905,37165,36147,35850,37038,38914,39996,39334,37142,34533,32858,32858,34256,36118,37418,37489,36305,34453,32858,32325,33013,34412,35811,36518,36300,35482,34640,34219,34359,34753,35064,35135,35045,34976,35110,35322,35410,35190,34638,33982,33571,33560,33911,34392,34730,34746,34457,34000,33596,33415,33463,33617,33848,33992,34044,33950,33760,33538,33453,33467,33619,33804,33969,33998,33850,33489,33038,32534,32146,32044,32243,32580,33051,33578,34129,34492,34452,33809,32854,31989,31620,31733,32175,32663,33332,34271,35431,36769,38298,39277,38708,36068,32126,28400,26567,27581,31018,34930,37413,37470,35600,33054,31143,30395,30912,32126,33566,34801,35680,35969,35764,35019,34023,33115,32660,32641,33044,33438,33544,33031,31985,31671,33135,35230,36306,35298,32971,31023,30934,32594,34982,36412,35973,33679,30672,28138,27115,27699,29490,31623,33354,34043,33902,33328,32949,32964,33328,33532,33496,33080,32602,32317,32444,32701,33017,33000,32817,32541,32440,32498,32828,33122,33345,33276,33028,32643,32457,32413,32641,32896,33108,33094,33039,32848,32819,32878,33111,33283,33400,33175,32885,32472,32192,32013,32111,32281,32612,32869,33267,33685,34050,33939,33405,32451,31718,31389,31552,31856,32370,33073,34346,35746,37177,38417,39091,38190,35654,31951,28673,27215,28380,31295,34569,36410,36103,33809,30801,28057,26522,26250,27269,29116,31550,33796,35385,35561,34399,32168,29878,28219,27892,28478,29558,30244,29985,29051,29145,30458,32004,32149,30673,28548,27423,27866,29767,31768,32683,31654,29302,26531,24798,24728,26441,28955,31321,32397,32181,30910,29541,28523,28349,28701,29457,29997,30411,30602,30798,30753,30790,30661,30569,30331,30116,29905,30138,30536,31135,31381,31320,30897,30637,30446,30617,30826,31097,31039,30932,30618,30663,31087,32024,32879,33381,32842,31530,29755,28522,28266,29475,31488,33610,34495,33979,32313,30723,29948,30821,32809,35298,36890,37075,36202,35733,35784,36150,35587,33595,30430,27873,27151,29069,32567,36223,38312,38569,37197,35688,34913,35601,37183,39152,40516,41202,40928,40210,39315,38847,38502,38248,37417,36182,34638,33495,33715,36304,39724,42245,42238,40019,36652,34097,33158,34226,36182,38040,38568,37867,36098,34515,33712,34216,35422,36834,37461,37375,36522,35675,35067,35116,35324,35757,35858,35868,35715,35849,35918,36082,35890,35631,35160,34945,34781,35013,35205,35503,35484,35356,34957,34711,34423,34454,34495,34683,34678,34798,34689,34742,34675,34776,34746,34826,34571,34303,33733,33238,32677,32476,32409,32823,33280,33975,34554,35149,35160,34776,33700,32667,31914,31964,32311,33009,33470,34223,35137,36369,37604,39112,39708,38801,35827,31893,28322,27066,28362,31793,35257,37345,37150,35531,33307,31813,31116,31470,32296,33620,34736,35766,36164,36114,35304,34321,33170,32637,32497,33000,33389,33607,32924,32062,32082,33867,35768,36393,34802,32458,30776,31192,33088,35428,36375,35582,32940,29990,27711,27206,28127,30202,32134,33643,33973,33678,33034,32926,33038,33518,33602,33470,32849,32375,31977,32215,32530,32997,33023,32966,32613,32600,32576,32878,33030,33225,33012,32893,32543,32508,32490,32793,32949,33255,33204,33233,33013,33015,32895,33037,32910,32924,32653,32474,32124,32096,32027,32338,32559,33138,33653,34222,34126,33663,32605,31802,31265,31426,31694,32368,33089,34430,35752,37232,38379,39055,38038,35527,31815,28673,27178,28444,31418,34902,36809,36839,35076,33091,31371,30812,31005,32145,33521,35098,36051,36602,36184,35265,33841,32817,32126,32346,32750,33380,33428,32942,31968,32541,34396,36431,36528,34693,31879,30447,30852,33117,35343,36479,35373,32890,29734,27692,27104,28341,30359,32654,33918,34373,33799,33264,32861,33099,33177,33293,32887,32530,32092,32235,32484,33099,33261,33264,32785,32501,32189,32466,32747,33248,33094,32399,30842,29400,28097,27656,27714,28632,29697,30959,31569,31906,31560,31085,30245,29691,28952,28631,28396,28742,29110,29672,29732,29753,29286,28926,28469,28532,28761,29490,29791,29861,29426,29360,29312,29759,30213,31341,32567,33955,34858,35784,35813,34963,32752,30066,27293,25974,26182,28189,30458,32361,32849,32599,31718,31249,30854,31047,31341,32158,32773,33449,33482,33313,32514,31793,30989,30904,30994,31510,31553,31186,29829,29349,30703,33761,35869,35835,33228,30082,27613,27542,29325,32142,33832,33863,31822,29417,27558,27582,29009,31545,33421,34268,33469,32023,30379,29758,29838,30787,31516,32250,32461,32721,32685,33084,33344,33910,34193,34690,34836,35221,35322,35777,36183,37004,37628,38464,38901,39448,39575,39725,39377,39085,38335,37639,36419,35338,34259,34034,34338,35681,37205,38931,39817,40051,39127,37873,36190,35152,34761,36023,38145,40624,42040,42686,42169,41044,38749,35956,32854,31137,31160,33319,35986,38333,38870,38049,35937,33962,32424,32351,33151,35006,36751,38244,38543,38122,36813,35714,34705,34523,34668,35370,35611,35518,34597,34590,35601,37210,37529,36526,34229,32497,31939,33254,35132,36854,36833,35427,32751,30445,29053,29530,30948,33015,34322,34874,34295,33685,33022,33100,33231,33635,33525,33457,33108,33336,33536,33951,33796,33529,32747,32358,32108,32619,33160,33905,33982,33921,33249,32809,32322,32421,32532,33080,33266,33513,33246,33068,32601,32585,32496,32904,33077,33468,33441,33591,33329,33263,32841,32647,32221,32191,31952,32141,32191,32567,32799,33479,33840,34201,33715,32973,31849,31383,31184,31736,32169,33010,33862,35146,36193,37730,38810,39050,37195,33873,29774,27202,26853,29423,33111,36455,37412,36457,34019,32070,30860,31073,31819,33188,34200,35250,35601,35725,35130,34496,33538,33115,32803,33124,33265,33416,32770,31953,31525,33102,35291,36755,35763,33427,30963,30503,31779,34332,35979,36171,34140,31348,28569,27412,27683,29490,31406,33177,33743,33656,32948,32751,32739,33340,33540,33604,32991,32527,31996,32269,32604,33207,33199,33065,32459,32344,32281,32818,33166,33579,33356,33122,32482,32273,32109,32514,32766,33249,33154,33113,32663,32585,32465,32901,33110,33529,33488,33509,33098,32921,32463,32408,32190,32350,32327,32611,32557,32906,33165,33784,33918,33841,32927,32174,31439,31548,31743,32324,32662,33692,34741,35972,36575,36917,35868,33617,29858,26393,24168,24798,27724,32207,35502,36473,34288,30892,27551,26052,26148,28075,30281,32404,33376,33701,32890,31892,30481,29638,28993,29072,29255,29963,30183,30117,29040,28517,29493,32142,33898,33824,31466,29009,27529,28336,30244,32452,32911,31598,28615,26107,24802,25857,28200,31276,33230,33850,32600,30910,29196,28747,28960,29887,30460,31062,31004,31029,30816,31091,31204,31578,31454,31493,31200,31228,31038,31211,31023,31052,30830,31051,31126,31554,31603,31783,31414,31227,30925,31297,31813,32921,33603,33890,32928,31509,29557,28540,28491,30205,32435,34618,35167,34642,33071,31931,31443,32536,34396,36824,37950,37994,37449,37882,38626,39308,38239,35846,32608,30994,31903,35790,40120,43398,43801,42026,38559,35525,33577,33803,35125,37078,38185,38646,38113,37780,37463,37873,38248,38739,38340,37668,36245,35258,35466,37693,39940,41174,39892,37303,34262,32770,32848,34700,36516,37806,37346,35891,33793,32719,32583,33833,35170,36419,36531,36195,35223,34796,34519,34920,35123,35470,35239,35258,35087,35372,35385,35487,34975,34597,33970,33926,33963,34522,34750,35046,34693,34438,33875,33759,33534,33811,33806,34083,33968,34073,33827,33969,33838,34085,34011,34182,33925,33834,33286,33026,32469,32326,32126,32482,32634,33203,33548,34283,34597,34778,34023,33203,32144,31847,31770,32305,32555,33309,34148,35651,37057,38837,39673,39216,36360,32424,28396,26619,27416,30911,34619,37275,37324,35814,33364,31807,31035,31589,32373,33600,34429,35361,35585,35716,35045,34364,33314,32844,32511,32937,33122,33373,32713,31966,31885,33675,35436,36209,34697,32484,30735,31235,32947,35226,36002,35211,32606,29977,27818,27479,28266,30208,31936,33415,33652,33546,32916,32874,32939,33514,33559,33559,32917,32541,32092,32313,32405,32842,32755,32784,32462,32600,32590,33069,33176,33421,33100,32922,32428,32438,32304,32676,32786,33109,32934,32956,32595,32650,32506,32783,32791,33158,33135,33447,33350,33453,33134,33126,32804,32878,32563,32563,32347,32578,32502,32747,32633,32979,33190,33710,33555,33284,32366,31906,31574,31971,32201,32826,33300,34458,35395,36738,37861,38892,38152,35933,32127,28815,27012,28209,31174,34917,36906,36972,34966,32751,30678,29997,29856,30377,30584,31067,31141,31540,31463,31627,31437,31578,31331,31336,30778,30368,29424,28478,27368,28210,30370,32880,33244,31663,28858,27254,27102,28955,30838,31972,30932,28823,26030,24500,24287,26117,28525,30965,31835,31748,30481,29391,28459,28624,28992,29800,29899,30058,29870,30069,30019,30513,30679,30973,30647,30451,29985,30205,30273,30779,30932,31233,30939,30834,30424,30595,30654,31152,31302,31744,31669,31849,31520,31365,30796,30721,30592,31311,32035,33127,33442,33290,31846,30304,28669,28403,29154,31301,33252,34673,34288,33207,31665,31046,31189,32911,34879,36745,36791,35918,34912,35450,36396,37161,35879,33275,30018,28654,29456,32714,36184,38887,39303,38459,36811,36424,37131,39109,40662,41609,40918,39569,37430,35888,34837,35158,35885,37199,37771,38049,37288,36620,36598,38361,40044,40973,39722,37534,35025,34118,34455,36266,37823,38811,38046,36501,34280,33143,32959,34340,35872,37374,37552,37197,36003,35296,34764,35082,35231,35697,35600,35772,35670,36048,36014,36122,35542,35113,34419,34360,34292,34885,35099,35370,34960,34740,34225,34251,34057,34366,34406,34769,34634,34731,34329,34350,34137,34349,34122,34083,33426,33068,32435,32400,32353,32929,33197,33926,34312,34961,34849,34499,33253,32360,31553,31746,32103,32997,33525,34600,35440,36652,37667,39079,39267,38068,34593,30687,27394,26900,28823,32804,36056,37747,36824,34843,32408,31280,30949,31937,32973,34380,35170,35936,35816,35584,34589,33826,32950,32923,32955,33573,33588,33484,32346,31729,32239,34483,36023,36140,34090,32092,31035,32301,34238,36169,36179,34684,31632,29067,27345,27648,28960,31244,32886,34046,33850,33522,32883,33036,33212,33829,33704,33528,32724,32394,32028,32430,32604,33144,33045,33072,32619,32653,32467,32899,32951,33281,33074,33109,32682,32726,32516,32817,32790,33037,32746,32753,32369,32488,32401,32825,32908,33350,33269,33462,33179,33218,32850,32914,32538,32555,32233,32374,32175,32407,32282,32732,33028,33745,33818,33745,32748,32030,31289,31548,31807,32484,32685,33534,34344,35634,36587,37977,38453,37974,35386,32077,28684,27437,28294,31492,34602,36754,36467,34971,32631,31306,30634,31373,32357,33935,34996,36046,36053,35795,34599,33613,32522,32452,32572,33396,33628,33724,32721,31904,32019,34219,36154,36847,34963,32467,30514,31096,33044,35651,36634,36036,33413,30695,28306,27794,28433,30476,32279,33912,34182,34133,33507,33485,33358,33765,33566,33453,32725,32404,32047,32510,32747,33272,33046,32875,32214,32156,32022,32601,32830,33246,32957,32802,32135,32073,31892,32326,32392,32724,32474,32532,32155,32285,32198,32643,32763,33276,33228,33430,33116,33113,32709,32762,32390,32467,32220,32415,32270,32599,32476,32533,31706,30808,29276,28203,27083,27116,27828,29834,31579,32974,32944,32886,32573,32980,33443,34564,34715,33993,31475,28651,25988,25371,26272,28740,30585,31573,30863,30033,29118,29254,29469,30355,30946,31881,32300,32914,32673,32283,31125,30449,29836,30113,30305,31078,31167,30915,29375,28633,29499,32376,34346,34494,32135,29624,27773,28343,30179,32622,33413,32727,30219,27924,26221,26731,28513,31359,33153,33919,32858,31506,29894,29423,29371,30295,30858,31578,31600,31814,31547,31750,31593,31911,31816,32011,31662,31612,31123,31219,31076,31408,31428,31968,32085,32545,32435,32559,32173,32168,31853,32174,32308,33053,33512,34290,34277,34032,32761,31762,30874,31431,32794,35346,37239,38498,38202,37850,37382,37869,38324,39419,40306,41554,41721,41490,40732,40851,40825,40636,38791,36257,33411,32628,33748,36828,39477,40992,39964,37822,35027,33631,33431,35087,37064,39280,40061,39887,38297,36793,35307,35127,35324,36313,36789,37137,36358,35754,35724,37276,38425,38732,37026,34901,32747,32425,33252,35318,36752,37476,36331,34618,32455,31569,31576,32973,34174,35366,35421,35162,34202,33792,33377,33717,33732,34042,33870,34130,34145,34738,34800,34888,34146,33556,32672,32690,32835,33695,34119,34582,34193,33882,33076,32878,32634,33055,33216,33761,33696,33813,33377,33272,32855,32979,32828,33180,33165,33523,33453,33701,33493,33725,33577,33787,33517,33480,32914,32745,32259,32342,32275,32720,32814,33363,33582,34194,34157,33908,32778,32104,31545,31942,32233,32873,33103,34010,34765,36132,37459,39050,39136,37627,33893,30035,27117,27168,29500,33465,36291,37463,36168,34147,31901,31015,30849,31897,32917,34316,35130,35944,35832,35526,34403,33603,32715,32659,32686,33286,33287,33180,32142,31735,32481,34771,36094,35884,33544,31352,30210,31460,33587,35864,36195,34902,31947,29338,27437,27533,28665,30863,32545,33791,33648,33338,32685,32795,32946,33506,33403,33315,32638,32420,32190,32673,32858,33233,32865,32650,32166,32347,32496,33188,33348,33576,33101,32757,32088,32133,32188,32824,33040,33389,33171,33174,32716,32669,32382,32584,32544,32921,32903,33277,33282,33630,33581,33779,33415,33271,32681,32475,32101,32295,32279,32698,32689,33014,33087,33626,33695,33775,32993,32325,31546,31666,31847,32551,32892,33704,34408,35537,36354,37683,38344,38181,35987,32816,29278,27612,28020,30945,34177,36588,36637,35343,33045,31574,30784,31364,32294,33846,34923,35973,36092,35909,34875,33943,32841,32612,32597,33283,33605,33807,32995,32074,31685,33311,35166,36072,34356,31310,28037,26932,27758,30304,32404,33443,32145,29718,26732,25091,24830,26468,28483,30506,31163,31062,30028,29299,28558,28582,28478,28664,28443,28641,28787,29590,30091,30684,30527,30282,29496,29199,28935,29426,29832,30497,30612,30818,30455,30262,29755,29769,29722,30184,30338,30759,30702,30838,30696,30946,30825,30995,30791,30907,30716,30816,30516,30639,30685,31357,31925,32795,32940,32702,31372,30000,28611,28280,28742,30523,32297,33799,33760,32908,31457,30853,30815,32069,33694,35696,36420,36105,35073,35052,35449,35998,35039,32843,29610,27479,27081,29182,32189,35137,36264,36024,34378,32999,32300,33297,35006,37099,37946,37841,36668,35826,35418,36332,37681,39454,40273,40170,38575,36451,34409,34738,36627,38942,39575,38670,36515,35074,34703,36023,37650,39123,38954,37676,35307,33455,32590,33625,35445,37658,38697,38689,37376,36048,34872,34807,35079,35857,36216,36431,35996,35845,35617,35822,35765,35805,35313,35040,34596,34728,34845,35339,35434,35601,35228,35045,34581,34487,34276,34546,34651,35062,35132,35329,35121,35049,34510,34179,33543,33182,32590,32333,32037,32552,33321,34654,35593,36255,35904,35207,33961,33298,33004,33403,33586,33860,33940,34817,35998,37642,39025,40152,39543,37294,33451,29830,27472,27889,30211,33556,35722,36280,34941,33340,31970,31952,32632,33695,34246,34705,34711,34965,34955,35028,34602,34287,33844,33911,33928,34192,33942,33476,32209,31604,32372,34685,36414,36541,34563,32451,31341,32246,33836,35081,34537,32756,30117,28333,27746,28821,30474,32343,33158,33133,32182,31494,31254,32015,32882,33813,33904,33644,32949,32563,32031,31855,31526,31738,32264,33380,34083,34367,33730,33033,32325,32302,32408,32855,32886,32828,32348,32182,32068,32495,32768,33120,33080,33083,32823,32896,32988,33497,33699,33758,33321,33150,32907,32993,32809,32694,32386,32447,32418,32779,32987,33357,33508,33814,33746,33651,33075,32606,32182,32399,32586,32896,32831,33180,33829,34899,35878,37275,38123,37884,35694,32422,29041,27432,27926,30537,33384,35233,35107,33950,32380,31638,31673,32598,33646,34852,35587,36176,36159,35813,34825,33826,32769,32367,32293,32795,33121,33130,31975,30377,29558,30770,32625,
2012-04-12 04:02:04	33792,33034,31481,30202,30578,32169,34104,34582,33334,30264,26976,24609,24320,25689,28282,30615,32089,31940,30918,29576,29101,29190,29915,30438,30764,30482,30181,29799,29916,30128,30530,30618,30672,30433,30429,30377,30544,30530,30603,30360,30285,30114,30225,30266,30511,30554,30756,30775,30942,30914,30984,30865,30956,30839,30876,30842,31058,31212,31570,31635,31681,31404,31187,30899,30989,31128,31669,32132,32603,32570,32189,31117,30067,29141,29097,29883,31516,32936,33748,33310,32375,31378,31100,31419,32629,34217,35805,36354,36291,36083,36214,35891,34755,32341,29561,27386,27212,28894,31859,34487,35858,35387,33887,32072,31287,31798,33615,35742,37490,37943,37342,35932,34743,34197,34753,35772,36897,37258,36915,35770,34695,34982,37390,40020,41049,39302,35921,32598,31293,32334,35275,38422,40418,40170,38110,35084,32779,32055,33200,35221,37282,38316,38371,37567,36725,36124,36074,36029,35998,35703,35506,35453,35871,36369,36852,36837,36397,35532,34770,34239,34341,34759,35361,35644,35676,35275,34837,34332,34113,34066,34307,34515,34824,34954,35061,34979,34873,34558,34296,33907,33592,33239,33031,32796,32826,32908,33289,33749,34387,34834,35061,34634,33827,32814,32098,31750,32017,32539,33414,34550,35937,37207,38564,39545,39509,37636,34278,30432,27854,27573,29862,33352,36331,37419,36610,34589,32677,31490,31360,31978,33135,34302,35392,36019,36154,35623,34666,33548,32851,32616,32968,33503,33912,33735,32863,31839,32284,34148,35906,35947,34192,31868,30849,31705,33857,35733,36197,34728,32062,29284,27611,27488,28802,30751,32647,33728,33891,33422,32917,32685,32955,33335,33547,33384,32971,32432,32147,32133,32484,32863,33052,32935,32761,32605,32707,32962,33178,33158,32971,32646,32420,32347,32482,32769,33097,33217,33187,32961,32698,32504,32506,32625,32925,33209,33411,33507,33509,33378,33230,33013,32786,32583,32462,32420,32508,32631,32767,32884,33026,33231,33520,33578,33235,32569,31969,31729,31907,32226,32598,33178,34180,35370,36594,37825,38688,38356,36309,32957,29547,27603,28102,30785,34157,36496,36837,35404,33299,31591,30875,31199,32256,33629,34978,35933,36271,35944,35038,33929,33057,32696,32860,33380,33795,33740,32993,31753,31424,33050,35423,36666,35767,33357,31180,30636,31848,33995,35680,35791,34122,31469,28951,27638,27870,29411,31517,33331,34077,33716,32608,31337,30240,29538,29195,29189,29326,29646,30222,30930,31421,31530,31117,30398,29660,29151,28916,29040,29292,29549,29701,29721,29602,29510,29278,29094,29034,29217,29498,29803,29920,29982,29987,29970,29872,29858,29912,30174,30422,30605,30645,30592,30357,30155,30073,30377,30949,31602,31883,31683,30871,29821,28895,28617,29117,30406,31671,32320,31998,31256,30618,30574,31150,32428,34032,35318,35540,35171,34849,34887,34717,33799,31847,29564,27757,27337,28434,30669,32947,34449,34553,33651,32271,31330,31247,32197,33526,34652,34811,33989,32573,31531,31210,31786,32683,33490,33548,32749,31144,29728,30173,33220,36891,38937,38030,35162,32012,30488,31164,33690,36616,38652,38643,36965,34638,33206,33363,35048,37019,38389,38360,37344,36026,35473,35793,36873,37770,38105,37615,36889,36241,36274,36778,37561,38068,38223,37803,37246,36565,36227,36151,36402,36583,36748,36556,36313,35966,35792,35675,35878,36058,36357,36448,36390,35953,35473,34879,34508,34148,34007,33966,34206,34452,34990,35514,35989,35951,35519,34584,33775,33201,33197,33430,33946,34457,35461,36577,37744,38723,39638,39657,38393,35513,32070,29269,28619,30253,33520,36381,37720,36988,35103,32986,31816,31640,32504,33694,34969,35797,36302,36148,35660,34734,33898,33224,33179,33398,33900,34028,33836,32874,31989,32282,34177,35891,36185,34530,32424,31296,32170,34082,35889,36147,34789,32151,29699,28116,28110,29179,30942,32461,33562,33755,33597,33173,33064,33108,33435,33492,33459,33069,32747,32418,32435,32420,32601,32585,32634,32546,32646,32691,32978,33082,33200,33049,32888,32484,32297,32155,32410,32660,32977,32961,32970,32740,32690,32536,32597,32568,32760,32754,32920,32952,33155,33248,33493,33507,33558,33285,33028,32621,32451,32226,32266,32208,32374,32458,32784,33073,33626,33822,33740,32996,32204,31492,31610,31989,32596,32873,33318,33971,35101,36016,37127,37971,38114,36579,33788,30299,28060,27878,30134,33309,35978,36587,35538,33427,31729,30866,31287,32249,33690,34831,35731,35949,35810,35003,34161,33196,32769,32673,33107,33439,33730,33303,32404,31660,32718,34794,36486,36008,33896,31431,30534,31431,33764,35696,36343,34928,32340,29469,27830,27494,28696,30480,32490,33678,34090,33566,33150,32902,33207,33359,33401,32877,32412,31905,32018,32431,33209,33553,33628,33086,32607,32198,32373,32657,33208,33336,33322,32887,32594,32301,32512,32646,32983,32987,32977,32673,32635,32521,32743,32845,33139,33159,33254,33064,33138,33097,33269,33206,33209,32895,32768,32482,32491,32411,32562,32531,32747,32841,33291,33627,33938,33602,33074,32175,31789,31667,31823,31473,31050,30449,30581,31075,32310,33911,35724,36257,35177,32202,28864,26344,26111,27673,30324,32057,32339,31041,29535,28272,28171,28749,29945,30961,31958,32416,32662,32197,31630,30809,30241,29613,29579,29774,30433,30598,30232,29065,29103,30801,33413,34482,33344,30471,28150,27355,28864,31266,33315,33417,31831,28957,26607,25472,26441,28675,31440,33066,33440,32339,31025,29813,29531,29762,30611,31017,31164,30843,30800,30720,31207,31687,32293,32260,32010,31367,31117,30896,31234,31451,31720,31603,31671,31543,31762,31800,32032,32040,32246,32052,31990,31724,31760,31707,32019,32212,32735,33061,33552,33571,33293,32164,30983,29845,29799,30771,32941,34981,36411,36350,35748,34975,34927,35282,36539,38072,40034,41207,41488,41151,41522,41958,42039,40334,37118,33038,30449,30213,32669,35871,38523,39226,38581,37020,36050,35829,36875,38246,39588,39822,39300,37899,36709,35890,36112,36714,37733,38203,38258,37382,36185,35190,36060,37863,39577,39469,37812,35147,33293,32656,33826,35573,37253,37549,36722,34700,32954,31864,32285,33464,35162,36032,36201,35330,34474,33717,33755,33958,34553,34721,34850,34620,34721,34738,35047,34837,34520,33782,33379,33074,33438,33806,34439,34582,34565,34005,33649,33158,33218,33251,33600,33641,33820,33593,33578,33320,33317,33125,33232,33112,33303,33243,33427,33415,33696,33730,33985,33817,33700,33212,32945,32457,32386,32175,32321,32275,32571,32806,33531,33953,34319,33900,33224,32173,31753,31596,32090,32409,32917,33354,34434,35433,36866,38156,39083,38215,35730,31756,28430,26829,28181,31324,34973,36867,36897,35028,33008,31364,31036,31358,32553,33662,34948,35627,36075,35691,35058,33834,33053,32539,32838,33181,33715,33571,33144,31958,31723,32947,35274,36351,35643,33138,31121,30558,32201,34421,36270,36078,34293,31270,28784,27310,27760,29174,31384,33001,33975,33741,33355,32778,32913,33104,33528,33368,33180,32564,32423,32375,32827,32978,33179,32788,32584,32244,32451,32666,33247,33376,33508,33071,32792,32364,32460,32471,32911,33015,33164,32797,32601,32241,32434,32501,32935,33107,33456,33319,33285,32861,32817,32655,32922,33015,33437,33512,33734,33505,33385,32935,32791,32399,32409,32259,32492,32534,32985,33222,33785,33844,33697,32830,32143,31522,31821,32189,32861,33058,33610,34239,35370,36292,37608,38237,37653,34736,30688,26468,24289,24498,27278,30582,33375,34102,33489,31747,30351,29264,29206,29367,30203,30972,31967,32324,32466,31762,31032,29923,29386,29100,29512,29625,29788,29228,28551,28342,30126,32470,34170,33312,30961,28303,27428,28202,30399,31947,32301,30606,28205,25825,25171,26061,28611,31108,33035,33174,32333,30590,29414,28660,28959,29447,30326,30683,31156,31219,31548,31549,31732,31419,31339,30955,30915,30735,31013,31073,31442,31396,31506,31216,31251,31059,31310,31313,31668,31712,31965,31789,31870,31560,31586,31452,31784,31966,32555,32866,33423,33311,32821,31331,29943,28759,29104,30541,33023,34778,35607,34882,34026,33106,33226,34000,35833,37620,39143,39175,39116,39455,40821,41605,41221,38562,35204,32351,32225,34329,37882,40291,41033,39423,37015,34641,34043,34814,36975,38826,40072,39757,38820,37341,36659,36443,37124,37742,38399,38065,37396,35876,34965,35306,37454,39297,40057,38491,36014,33455,32598,33130,35116,36758,37744,36999,35404,33260,32235,32195,33615,35098,36394,36475,36076,35011,34520,34212,34612,34794,35077,34720,34646,34491,34945,35157,35479,35091,34763,34002,33726,33459,33830,34001,34444,34335,34344,33941,33877,33594,33741,33601,33819,33733,33886,33631,33660,33318,33370,33176,33368,33293,33563,33503,33784,33734,33984,33928,34095,33741,33619,33093,32815,32291,32282,32127,32483,32630,33238,33669,34370,34394,34163,33039,32133,31406,31624,31971,32771,33108,33831,34517,35748,36998,38660,39049,37901,34576,30741,27501,26934,28723,32482,35640,37311,36547,34786,32516,31367,30913,31647,32548,33920,34844,35769,35826,35616,34648,33831,32872,32737,32762,33413,33657,33779,32941,32021,31622,33242,35183,36302,35085,32964,30942,30940,32342,34724,36021,35898,33660,31016,28565,27741,28031,29674,31323,32982,33472,33502,32941,32952,33032,33622,33691,33706,33103,32747,32264,32494,32616,33066,32975,32894,32378,32379,32340,32871,33121,33504,33231,33069,32499,32447,32300,32723,32925,33355,33118,32992,32450,32327,32118,32496,32672,33163,33158,33272,32984,33048,32905,33232,33237,33515,33376,33454,33103,33064,32672,32653,32377,32468,32295,32571,32559,32974,33198,33786,33784,33669,32698,31974,31332,31673,32077,32789,32964,33600,34254,35440,36494,38024,38649,38109,35423,31984,28648,27521,28541,31753,34813,36801,36491,35044,32881,31635,30974,31521,32338,33769,34839,35967,36155,35997,34935,33970,32889,32693,32714,33362,33566,33680,32988,32164,31573,33109,35332,37000,36168,33819,31001,30078,30848,33161,34718,34718,32192,28802,25368,23775,23913,26043,28632,31351,32657,32983,31904,30735,29522,29345,29269,29575,29423,29438,29168,29460,29595,30077,30032,29972,29325,28913,28395,28737,29213,30171,30524,30738,30249,30047,29582,29687,29791,30364,30494,30771,30470,30405,30071,30201,30179,30743,31044,31540,31360,31191,30584,30461,30221,30648,30996,31718,32000,32428,32129,31625,30299,29199,28324,28783,29851,31734,32923,33490,32730,31841,30803,30887,31500,33122,34710,36160,36272,36257,35864,35668,34663,33116,30485,28234,26751,27450,29531,32621,34769,35799,34933,33527,31830,31295,31612,33191,34509,35418,34890,33955,32693,32401,32583,33774,34744,35592,35273,34437,32641,32001,33495,37236,40308,41351,39292,36285,33582,33102,34308,36829,38592,39152,37411,34722,31872,30918,31749,34510,37186,39255,39485,38757,37198,36381,36002,36631,37048,37541,37313,37153,36609,36636,36579,36911,36791,36729,36046,35710,35246,35430,35592,36191,36298,36431,35866,35443,34737,34606,34476,34987,35216,35692,35674,35827,35505,35496,35050,34863,34286,34023,33471,33435,33298,33763,33990,34510,34673,35157,35125,35167,34447,33765,32844,32637,32475,32958,33257,34117,35058,36535,37677,39207,39897,39536,37004,33525,29755,27956,28285,31130,34409,37010,37300,36218,34023,32511,31605,31949,32561,33800,34646,35628,35842,35841,35099,34494,33547,33245,33103,33694,33996,34279,33547,32455,31197,31941,33900,36095,36194,34686,32228,31272,31914,34153,35786,36291,34576,31997,29153,27788,27622,29130,30889,32795,33619,33920,33358,33168,32944,33415,33610,33870,33477,33212,32502,32362,32228,32674,32768,32984,32619,32613,32393,32726,32854,33341,33292,33377,32897,32695,32318,32520,32563,33031,33034,33202,32911,32892,32542,32677,32592,32938,32966,33267,33153,33354,33193,33423,33315,33444,33099,33043,32582,32574,32364,32636,32626,32952,32801,33061,33109,33531,33421,33273,32472,32132,31826,32200,32329,32780,33023,34126,35171,36566,37598,38574,38073,36431,33209,30186,28046,28415,30515,33894,36100,36830,35479,33680,31723,30943,30802,31935,33259,34980,36045,36861,36477,35685,34111,32980,32098,32342,32789,33750,33961,33847,32625,31938,32495,34768,36249,36174,33869,31506,30098,31125,33285,35843,36666,35765,32847,29945,27624,27369,28378,30663,32571,34032,34073,33818,33081,32951,32882,33358,33247,33173,32530,32325,32188,32861,33305,33856,33515,33112,32307,32168,32128,32847,33252,33759,33505,33265,32566,32424,32082,32083,31406,30627,29301,28487,27802,28294,29250,30948,32157,33091,32757,32002,30444,29269,28319,28548,28989,29932,30406,30964,30726,30318,29123,28440,27940,28449,28982,29809,29902,30002,29622,29724,29671,30139,30527,31721,32759,34166,35197,36235,35943,34733,32082,29370,26881,26254,27046,29316,31146,32515,32576,32342,31537,31224,30785,31141,31576,32719,33540,34327,34012,33346,31925,31092,30548,31050,31530,32273,32058,31391,29652,28919,30060,33302,35672,36071,33636,30474,27744,27460,28945,31821,33706,34073,32030,29398,27019,26888,28417,31376,33676,34954,34083,32422,30225,29239,29143,30319,31322,32400,32658,32946,32780,33013,32901,33171,32984,33118,33009,33500,33848,34717,35133,35778,35934,36393,36533,37172,37532,38355,38786,39359,39157,38877,37875,37210,36337,36028,35433,35248,34862,35273,35827,37129,38057,38864,38568,38061,36784,35850,34976,35278,36279,38498,40189,41439,41568,41528,40517,39057,36232,33488,31257,31243,32782,35636,37567,38387,37245,35514,33424,32501,32301,33583,35158,37098,38102,38608,37853,36934,35492,34711,34198,34677,35066,35724,35510,34946,34043,34795,36226,37700,37181,35400,32784,31556,31716,33770,35654,36851,35970,33995,31170,29466,28827,30051,31724,33651,34449,34697,33897,33374,32808,33046,33107,33409,33088,33066,32813,33259,33572,34159,33917,33607,32647,32240,31954,32570,33075,33931,33997,33976,33260,32876,32328,32523,32576,33130,33218,33459,33103,33053,32608,32697,32588,32973,32994,33318,33101,33213,32943,33154,33107,33522,33497,33771,33493,33468,32978,32877,32412,32489,32281,32561,32507,32846,32884,33461,33646,33978,33498,32941,31920,31716,31718,32467,32830,33432,33647,34493,35087,36318,37490,38733,38265,36312,32506,29148,27150,28197,31021,34750,36843,37258,35450,33290,31189,30562,30694,32103,33456,35102,35932,36480,35963,35315,33996,33256,32612,32875,33115,33782,33689,33435,32176,31721,32535,34906,36230,36038,33706,31546,30414,31599,33566,35671,35908,34714,31922,29476,27607,27697,28716,30839,32521,33817,33754,33543,32916,33062,33153,33602,33334,33162,32421,32282,32172,32820,33126,33579,33161,32858,32212,32290,32358,33102,33337,33681,33220,32938,32316,32347,32271,32824,32944,33239,32951,32932,32497,32604,32473,32855,32876,33203,32976,33102,32803,33058,33051,33485,33445,33671,33311,33254,32812,32809,32504,32730,32585,32858,32683,32836,32652,33116,33295,33774,33425,33045,32130,31942,31834,32443,32656,33167,33429,34471,35268,36434,36996,37257,35710,32940,28761,25649,24343,26136,29415,33293,35211,35237,32989,30568,28358,27687,27690,28894,30132,31967,33215,34170,33685,32656,30733,29465,28559,28900,29479,30578,30775,30531,29017,28470,29495,32210,33797,33718,31310,28942,27443,28353,30280,32572,32957,31876,29168,26817,25262,25948,27815,30710,32649,33639,32854,31681,30094,29536,29378,30065,30341,30832,30768,31128,31144,31617,31694,32079,31828,31792,31235,31113,30792,31099,31086,31466,31386,31630,31429,31637,31486,31778,31648,31943,31841,32034,31698,31683,31249,31348,31336,32016,32534,33468,33605,33455,32185,30891,29433,29258,29875,31889,33638,34922,34576,33791,32412,32029,32254,33819,35548,37402,37846,38159,38431,39557,40010,39496,36834,33762,31222,31582,34154,38237,41064,42162,40543,37939,34997,33748,33960,35981,37874,39441,39452,38895,37620,37080,36781,37481,38007,38630,38266,37712,36318,35463,35575,37697,39743,40853,39457,37005,34136,32889,33043,34840,36430,37584,36942,35495,33380,32327,32112,33449,34877,36375,36590,36248,35067,34473,33988,34423,34671,35171,35016,35099,34806,35072,35044,35264,34829,34528,33787,33677,33527,34037,34297,34793,34593,34515,33872,33639,33221,33415,33396,33827,33810,34035,33753,33757,33342,33360,33028,33205,33153,33585,33636,34043,33937,34120,33798,33743,33217,32976,32248,32020,31739,32176,32465,33195,33578,34403,34643,34704,33751,32768,31518,31216,31208,32111,32801,33836,34537,35709,36732,38489,39457,39159,36323,32420,28324,26600,27432,31028,34863,37680,37647,35965,33209,31403,30537,31253,32259,33754,34668,35594,35748,35745,34864,34166,33201,32945,32760,33245,33426,33741,33176,32367,31509,32594,34483,36247,35722,33819,31433,30893,31952,34467,36086,36385,34435,31722,28889,27691,27676,29223,30931,32749,33515,33816,33251,33050,32812,33239,33392,33700,33317,33111,32566,32587,32545,32937,32834,32942,32554,32576,32450,32876,33010,33438,33272,33201,32645,32466,32117,32389,32498,33043,33135,33309,32925,32819,32422,32544,32551,32954,32914,33038,32713,32894,32903,33338,33475,33929,33808,33719,32969,32448,31725,31654,31559,32115,32451,33074,33289,33832,33976,34227,33597,32806,31594,31141,31035,31765,32270,33074,33713,34891,35823,37243,38197,38315,36013,32120,27480,24658,24173,26762,30451,33890,34962,34165,31670,29508,28003,28073,28714,30039,30957,31987,32416,32791,32293,31616,30374,29599,28843,28950,29205,29833,29786,29408,28438,29022,30959,33384,33862,32452,29673,27958,27680,29363,31304,32710,32013,30164,27499,25790,25299,26799,29017,31522,32691,32832,31735,30727,29716,29667,29827,30408,30495,30605,30295,30483,30628,31275,31599,32001,31784,31636,30975,30696,30356,30624,30796,31354,31438,31610,31210,31070,30876,31322,31557,32036,32078,32247,31845,31507,30874,30900,31113,31943,32650,33549,33668,33398,32113,30784,29507,29495,30399,32491,34224,35297,34957,34300,33382,33444,34230,36213,38276,40048,40318,40249,40084,40564,40448,39422,36846,34274,32550,33331,35847,39150,40940,40779,38335,35492,33237,33232,34930,37918,40196,41311,40486,38895,36980,36045,35794,36646,37391,38035,37809,37364,36304,36107,36951,38802,39701,39181,36734,34129,32155,32267,33778,36235,37891,38488,37220,35193,32898,31868,31998,33550,35085,36341,36343,35786,34723,34311,34100,34539,34711,34890,34599,34619,34592,35130,35356,35475,34839,34247,33501,33436,33537,34204,34623,34987,34605,34177,33421,33175,33054,33418,33565,33896,33838,34017,33855,33806,33402,33287,32964,33111,33217,33701,33903,34243,34120,34167,33830,33644,33127,32846,32311,32150,31892,32124,32347,32956,33365,34031,34271,34470,33977,33235,32078,31524,31270,31824,32415,33291,34016,35127,36191,37946,39315,39474,37126,33237,28848,26433,26683,29877,33954,37285,37969,36584,33758,31418,30061,30334,31298,32909,34200,35387,35838,35879,35091,34258,33208,32763,32611,33075,33308,33433,32779,31828,31003,32100,34300,36365,36209,34260,31611,30623,31556,34118,36149,36808,35255,32552,29547,27839,27365,28436,29971,31730,32762,33327,33174,33201,33172,33541,33675,33777,33317,32938,32398,32386,32521,33047,33216,33319,32863,32554,32188,32348,32568,33109,33251,33360,33002,32757,32394,32479,32462,32722,32760,32910,32753,32750,32517,32600,32566,32811,32864,33098,33005,33108,33016,33179,33190,33423,33338,33349,33000,32773,32346,32234,32038,32250,32347,32692,32859,33300,33546,33903,33662,33156,32196,31584,31271,31641,32000,32617,33214,34311,35439,36924,38286,39309,38573,36128,32273,28891,27081,28022,30818,34289,36392,36742,35202,33267,31528,31009,31321,32435,33483,34627,35313,35789,35588,35067,34029,33269,32707,32819,33131,33651,33642,33235,32041,31672,32819,35016,36211,35692,33420,31389,30618,31845,33973,35957,36168,34708,31924,29372,27731,27832,28984,30753,31813,32010,31112,30034,29123,29250,29963,31051,31626,31775,31223,30722,30240,30290,30405,30603,30320,29950,29331,29119,29091,29466,29659,29845,29654,29612,29353,29319,29294,29591,29732,29984,29965,30102,30105,30294,30289,30487,30528,30650,30510,30381,30056,30048,30092,30536,31086,31826,32083,31907,30886,29723,28780,28844,29620,30992,31965,32416,31970,31256,30502,30493,31144,32715,34415,35818,36243,36263,35742,35065,33831,32135,29947,28297,27628,28527,30295,32380,33751,34183,33461,32412,31372,31143,31645,32849,33911,34587,34214,33275,32045,31367,31184,31711,32316,32929,32793,31895,30223,29725,31444,34599,36710,36438,33739,30512,28306,28548,30902,34285,36665,37045,35144,32518,30538,30548,32300,35008,37054,37884,37132,35712,34380,34067,34561,35615,36332,36711,36628,36482,36326,36582,36918,37406,37598,37588,37176,36858,36541,36602,36728,36920,36866,36743,36341,36109,35979,36275,36762,37502,37889,37972,37408,36596,35639,35047,34670,34791,35018,35404,35576,35582,35259,35114,35093,35418,35687,35820,35510,35018,34283,33826,33659,34012,34993,36771,38594,40411,41556,41368,39265,35851,31957,29290,28762,30704,33892,36841,37998,37370,35415,33429,32098,31896,32397,33543,34776,35941,36604,36751,36167,35265,34149,33382,33078,33401,33875,34274,34017,33116,32254,32924,34741,36346,36188,34367,32021,30872,31514,33663,35722,36539,35347,32735,29780,27935,27662,29024,31102,33117,34209,34343,33671,32987,32634,32840,33194,33447,33247,32902,32527,32511,32799,33233,33327,33137,32637,32308,32204,32482,32857,33354,33545,33449,32962,32423,31983,31973,32161,32583,32908,33105,33035,32921,32745,32781,32905,33114,33230,33255,33027,32768,32446,32289,32247,32379,32490,32698,32729,32736,32821,33196,33585,33820,33477,32788,32020,31551,31346,31600,32145,33164,34549,36048,37516,38950,39364,38035,34914,31046,27975,27107,28720,32032,35273,36955,36573,34792,32650,31241,30838,31391,32505,33863,35027,35859,36078,35678,34752,33701,32834,32539,32732,33230,33608,33548,32729,31788,32112,33973,35858,36209,34576,32235,30720,31051,32962,35236,36418,35778,33439,30553,28320,27527,28253,30107,32199,33733,34192,33844,33282,33008,33064,33366,33551,33470,33116,32673,32344,32443,32829,33303,33530,33401,33030,32726,32641,32871,33277,33535,33458,33103,32597,32225,32203,32473,32906,33278,33370,33218,32964,32799,32852,33117,33407,33630,33594,33273,32859,32539,32321,32256,32324,32441,32611,32742,32932,33324,33790,33895,33276,31859,29913,27853,26259,25637,26263,28158,31181,34706,38102,40402,40431,37521,32514,27280,23776,23123,25230,28755,31879,33116,32171,29998,28039,27091,27270,28129,29239,30354,31361,32064,32288,31885,30955,29766,28847,28472,28754,29401,30008,29996,29094,28219,29029,31235,33255,33502,31787,29241,27432,27279,28997,31449,33086,32829,30853,28152,26279,26106,27713,30304,32790,34001,33713,32205,30425,29269,29246,29897,30742,31201,31337,31296,31377,31590,32083,32554,32845,32671,32152,31478,31065,30852,30938,31274,31849,32372,32744,32742,32632,32546,32657,32854,33166,33352,33464,33155,32367,31217,30369,30185,31181,33162,35534,37235,37988,37646,36657,35532,35312,36341,38516,40849,42527,43239,43569,43544,42863,40807,37506,33715,31242,31278,33920,37629,40727,41773,40726,38249,35714,34129,34243,35580,37524,39040,39653,39165,38167,37033,36472,36465,36947,37370,37521,36968,36070,35772,36883,38501,39470,38725,36692,34267,32775,32702,34020,35768,37212,37371,36269,34340,32734,32095,32792,34147,35581,36272,36185,35364,34558,33996,34038,34296,34636,34695,34721,34662,34894,35156,35359,35128,34626,33798,33202,32954,33288,33842,34478,34670,34548,33997,33429,32968,32898,32971,33324,33550,33758,33696,33596,33397,33441,33437,33542,33570,33707,33617,33494,33076,32713,32315,32180,32160,32443,32659,33027,33382,33889,34171,34208,33549,32684,31821,31480,31542,32127,32737,33665,34629,35803,37208,38912,39587,38422,34991,30666,27195,26410,28425,32386,35906,37549,36726,34551,32143,30807,30540,31330,32523,33907,34980,35786,35871,35516,34628,33720,32919,32761,32889,33326,33421,33223,32346,31623,32090,34180,36057,36391,34578,32147,30584,31175,33207,35508,36387,35444,32788,29969,27906,27522,28503,30456,32256,33519,33677,33317,32735,32620,32827,33434,33678,33626,33044,32472,31993,32097,32338,32758,32829,32772,32479,32500,32551,32837,32911,32965,32682,32429,32046,32015,31993,32225,32373,32607,32539,32515,32273,32244,32241,32525,32686,32930,32788,32584,32123,31838,31529,31615,31675,31989,32173,32590,32963,33428,33321,32868,31910,31107,30467,30426,30591,31218,32016,33343,34662,36288,37795,38707,37615,34656,30534,27270,26017,27646,30982,34596,36465,36315,34412,32348,30767,30436,30891,32041,33195,34466,35225,35679,35314,34474,33216,32469,32147,32620,33262,33969,34018,33430,32271,32507,34220,36311,36805,35491,33126,31867,32278,34360,36446,37470,36331,33779,30588,28412,27704,28834,30843,33229,34737,35328,34858,34209,33563,33573,33672,33916,33738,33479,33038,33056,33166,33530,33549,33510,33188,33116,33017,33284,33468,33776,33732,33680,33265,33082,32850,32962,33005,33303,33378,33630,33596,33673,33563,33625,33408,33300,32932,32805,32613,32702,32618,32751,32690,32886,33100,33698,34092,34378,33919,33201,32212,31705,31476,31865,32335,33379,34625,36056,37153,38441,39047,38540,36077,32528,28958,27380,28190,31322,34696,36949,36901,35332,33007,31472,30834,31432,32553,34146,35385,36368,36489,36118,35019,33975,33009,32782,32843,33438,33831,34004,33184,32377,32733,34851,36673,36734,34107,30540,27597,27051,28529,31319,33503,34353,33169,31168,28968,27766,27576,28583,29731,30798,30920,30645,30110,30124,30222,30522,30238,29752,28879,28443,28387,29242,30126,30900,30854,30455,29586,29166,29038,29594,30076,30553,30451,30296,29812,29742,29743,30118,30263,30440,30159,30067,29951,30277,30498,30808,30567,30287,29837,29945,30260,31039,31471,31653,30923,29928,28701,28132,28207,29501,30908,32071,32055,31459,30324,29705,29720,31056,32924,34826,35383,35100,34278,33918,33539,32993,31335,29169,26924,26051,26605,28731,31161,33270,33817,33312,31938,30969,30484,31016,31766,32667,32678,32193,31137,30391,29949,30583,31609,32899,33304,32915,31425,30643,31860,35134,37854,38504,36247,32893,29938,29322,30904,34182,37060,38557,37634,35422,32882,31996,33021,35712,38118,39582,39176,37753,36112,35781,36412,37851,38865,39544,39444,39249,38693,38394,37953,37813,37467,37382,37190,37540,37938,38680,39013,39126,38575,38045,37254,36952,36863,37335,37580,37811,37414,37006,36303,35954,35542,35515,35334,35616,35936,36600,36857,36900,36270,35664,34779,34339,34020,34477,35558,37601,39446,41167,41914,41535,39283,36023,32202,29694,29163,31194,34277,37250,38299,37691,35635,33668,32146,31960,32430,33721,34926,36162,36716,36961,36336,35553,34451,33841,33486,33789,33919,34117,33641,32978,32795,34277,35986,36987,35917,33872,31972,31898,33197,35315,36313,35918,33767,31236,28981,28324,28803,30465,32078,33464,33803,33821,33364,33350,33376,33792,33855,33880,33340,32998,32595,32692,32772,33166,33185,33280,32962,32914,32805,33078,33090,33299,33131,33104,32769,32730,32553,32822,32904,33185,33122,33157,32847,32820,32624,32836,32926,33315,33411,33687,33579,33566,33152,32812,32183,31918,31596,31788,31956,32459,32747,33374,33791,34322,34152,33607,32369,31525,30935,31229,31625,32438,33232,34570,35662,36977,38090,39075,38564,36499,32708,29119,26888,27589,30434,34268,36652,37053,35242,32948,30981,30475,30895,32250,33474,34769,35445,35869,35526,34993,33929,33228,32638,32752,32947,33450,33323,32764,31583,31882,33600,35817,36281,35007,32554,31150,31328,33301,35259,36364,35344,33059,30161,28340,27700,28709,30285,32202,33360,33924,33590,33326,32989,33208,33347,33587,33305,33064,32512,32434,32430,32913,33138,33371,33036,32812,32397,32486,32658,33168,33232,33292,32903,32678,32323,32396,32418,32858,33004,33205,32981,32861,32516,32616,32625,33008,33182,33498,33423,33451,33039,32811,32341,32189,31910,32025,32012,32413,32684,33291,33734,34275,34114,33655,32525,31638,31067,31389,31770,32512,33069,34134,35192,36358,37138,38185,38435,37575,34906,31579,28515,27614,28766,31625,33991,34850,33303,30777,28151,26989,27129,28760,30795,33070,34414,35039,34478,33398,31766,30470,29354,29151,29249,29820,30022,29948,28957,28686,29641,31603,32511,31839,29655,28004,27652,29348,31600,33286,32776,30665,27499,25174,24256,25530,27916,30796,32478,32930,31964,30779,29644,29432,29541,30115,30286,30385,30145,30297,30418,30956,31245,31605,31473,31322,30774,30554,30303,30507,30578,30975,31148,31474,31283,31125,30728,30791,30885,31403,31542,31695,31385,31209,30957,31323,31694,32394,32729,32822,31987,30870,29512,29039,29321,30745,32437,34045,34333,33819,32536,31495,30809,31491,33028,35349,36741,37023,36347,36211,36311,36601,35593,33432,30331,28212,27892,30122,33320,36441,37843,37722,36264,35099,34690,35921,37822,39901,40856,40883,39729,38618,37675,37568,37608,37938,37606,37010,35683,34672,34894,37296,39969,41618,40712,38214,35113,33385,33379,35372,37558,39118,38963,37672,35496,33947,33252,34054,35377,36874,37423,37383,36509,35823,35244,35322,35404,35711,35516,35377,35049,35296,35599,36247,36352,36286,35553,34901,34225,34258,34434,35054,35299,35494,35169,34901,34374,34318,34231,34499,34591,34895,34857,34977,34634,34352,33673,33118,32342,32081,31948,32467,32996,33834,34396,35100,35200,35045,34093,33095,32018,31689,31574,32131,32698,33760,34943,36490,37664,39011,39589,39041,36479,32837,29047,27263,27823,30849,34352,36952,37178,35785,33334,31559,30698,31239,32250,33785,34847,35737,35835,35641,34815,34123,33263,33001,32867,33250,33376,33485,32730,32004,32150,34017,35794,36381,34797,32722,31336,32031,33872,35959,36444,35328,32561,29867,27969,27840,28769,30655,32148,33227,33357,33375,33171,33457,33641,34098,34078,33905,33175,32648,31999,31949,32043,32598,32924,33335,33227,33253,33016,33082,32944,33077,32871,32899,32643,32667,32556,32801,32824,33084,32945,32921,32648,32698,32584,32902,33006,33353,33351,33523,33376,33404,32971,32666,32107,31863,31503,31640,31741,32326,32768,33477,33906,34431,34219,33670,32414,31429,30753,30992,31393,32299,33049,34309,35445,36701,37631,38730,38658,37187,33879,30298,27479,27257,29227,32820,35718,36994,35875,33815,31564,30628,30703,31905,33174,34614,35403,36013,35823,35356,34288,33484,32675,32641,32792,33324,33349,33075,32006,32084,33516,35718,36457,35434,32910,31185,30842,32406,34090,34764,33104,30073,26458,24250,23684,25128,27353,30081,31883,32783,32316,31466,30177,29465,28878,28920,28892,29134,29021,29213,29257,29711,29773,29735,29138,28774,28351,28629,29053,29899,30372,30849,30629,30302,29556,29228,28979,29355,29656,30252,30415,30629,30419,30365,30078,30255,30236,30449,30333,30427,30204,30383,30499,31100,31531,32143,32098,31773,30560,29448,28435,28501,29294,31091,32487,33253,32672,31724,30425,29955,30362,32300,34532,36488,36913,36609,35583,34832,33829,32827,30975,29143,27585,27666,28915,31309,33354,34779,34718,34044,32798,32316,32453,33590,34536,35284,34960,34337,33363,33136,33424,34657,35711,36549,36191,35137,33746,34590,37512,41226,42919,42013,38746,35385,32915,32822,34224,36499,37818,38033,36661,35135,33913,34196,35299,37102,38221,38800,38179,37339,36372,36341,36615,37347,37471,37418,36775,36365,35938,36198,36359,36768,36646,36464,35805,35480,35056,35262,35412,35883,35870,35872,35341,35098,34715,34864,34974,35497,35627,35846,35446,35006,34079,33410,32590,32484,32587,33359,33975,34845,35308,35833,35617,35168,34070,33175,32201,31962,31909,32622,33496,35121,36614,38296,39442,40446,39913,37800,33891,30158,27634,27990,30450,34199,36755,37620,36235,34237,32211,31431,31438,32461,33414,34610,35245,35847,35753,35510,34562,33794,32891,32744,32783,33350,33449,33313,32265,32238,33456,35529,36201,35287,32911,31509,31593,33523,35422,36487,35397,33123,30150,28299,27635,28664,30134,32025,33140,33862,33750,33733,33429,33599,33480,33577,33242,33067,32487,32369,32189,32563,32708,33097,33065,33266,33003,32980,32695,32774,32601,32810,32675,32851,32765,32990,32882,33088,32925,33001,32698,32655,32367,32555,32538,32966,33114,33490,33434,33571,33292,33309,32972,32919,32521,32432,32064,32121,32026,32469,32708,33277,33505,33972,33767,33413,32429,31811,31259,31481,31657,32321,32948,34295,35473,36894,37953,38948,38406,36433,32797,29465,27302,27952,30491,34091,36363,36965,35365,33327,31372,30774,30967,32245,33442,34839,35513,35992,35612,35062,33944,33296,32716,32947,33172,33635,33309,32644,31541,32193,34067,36061,35742,33288,29347,26709,26070,28082,30845,33313,33498,31920,28892,26402,24910,25425,26760,28785,30078,30820,30420,29991,29293,29271,29172,29331,28905,28640,28203,28535,28977,29964,30522,31037,30717,30373,29526,29144,28876,29403,29854,30582,30592,30579,30077,29951,29714,30150,30372,30818,30766,30985,30833,31035,30895,31078,30809,30702,30222,30256,30231,30842,31208,31809,31947,32125,31538,30920,29744,29017,28560,29363,30595,32358,33079,32972,31782,30901,30175,30815,32236,34782,36679,37475,36634,35883,35169,35103,34283,32718,30018,27978,27080,28447,30798,33643,35246,35770,34700,33586,32637,33046,34135,35973,37071,37654,37011,36324,35530,35688,36133,37309,38036,38624,38227,37554,36987,38249,39838,40860,39619,37080,34024,32472,32350,34223,36544,38790,39382,38772,36725,34992,33902,34565,35932,37828,38719,39018,38104,37159,36083,35918,35896,36390,36363,36378,35923,35945,35930,36550,36806,37057,36452,35708,34501,34094,34026,34962,35809,36678,36501,36041,34985,34628,34552,35296,35804,36410,36117,35694,34694,34056,33265,33040,32718,33127,33463,34206,34501,35021,35108,35506,35342,35104,34127,33325,32241,31876,31698,32333,33077,34627,36008,37709,39031,40308,39918,37893,33932,30211,27697,28135,30643,34433,36989,37849,36289,34212,32268,31846,32177,33379,34171,35127,35472,35950,35890,35932,35170,34436,33493,33341,33227,33612,33517,33353,32443,32660,34015,36173,36768,35702,33042,31352,31234,33266,35530,37258,36663,34447,30901,28246,26961,27954,29730,32060,33404,34200,33936,33736,33242,33436,33662,34226,34000,33560,32532,32192,32025,32561,32797,33249,33212,33688,33947,34507,34386,34269,33735,33730,33342,33206,32758,32708,32257,32382,32425,32985,33217,33720,33610,33435,32657,32458,32450,33388,34185,34906,34527,34120,33357,32919,31922,31258,30690,31354,32319,33752,34346,34916,35108,35355,34379,33281,32329,32722,33271,33949,33524,33135,33074,34299,35242,35888,35942,36762,37136,36796,34656,31939,29148,28401,29605,32585,34883,35769,34317,32387,30726,30695,31304,32662,33575,34406,34250,34225,33925,34158,33934,33858,33176,32852,32472,32787,32840,32981,32108,31959,32981,35101,35931,35375,33185,31602,31216,32901,35096,37206,37484,36402,33657,30907,28677,28530,29721,32317,34533,36153,36091,35432,34369,34313,34406,35067,35116,34519,32427,30894,30581,32476,34832,37085,37879,38113,37479,36984,36064,35521,34679,34474,34140,34163,33581,33101,32135,31775,31479,31957,32219,32659,32428,32549,32539,33191,33411,33642,33004,32486,31571,31085,30093,29234,27969,27126,26054,25893,26183,27353,28116,28913,29153,29537,29132,28772,28005,27904,28223,29917,31754,33798,34728,35363,35336,35442,34672,33597,31603,30270,29980,31922,34448,36780,37148,36411,34748,33828,33145,33311,33252,33406,33108,33413,33775,34785,35250,35608,35149,34854,34117,33710,32798,32069,30543,28869,27565,28559,30287,31845,31478,30541,29653,30331,31312,32429,32295,31452,29323,27216,25221,24959,25840,27907,29493,30667,30421,29806,28671,28304,28216,28940,29141,29312,28921,29038,29028,29549,29667,30057,29853,29871,29525,29512,29015,29034,29007,29740,30383,31584,32464,33393,33089,32313,30871,30249,30056,30852,31346,32127,32365,32569,31877,31368,30753,31169,31578,32049,31523,31113,30658,31156,31267,31235,30346,29813,29258,29664,30218,31447,32107,32590,32247,32036,31317,31530,32537,35058,37364,38975,38775,38099,36772,35662,33734,31331,28039,25868,25176,26970,29744,32982,34599,35028,34049,33287,32536,32594,32412,32694,32786,33434,33604,33962,34122,35198,36051,36883,36698,36213,34801,33822,34037,37100,40565,42549,40982,37362,32946,30364,29777,31769,34645,37815,39237,39139,37165,35189,33737,34118,35046,36465,36991,37159,36466,36369,36653,38050,38941,39175,37796,36147,34359,33909,34143,35409,36397,37337,37124,36558,35210,34526,34233,34987,35598,36339,36021,35546,34491,33938,33473,34129,34849,35978,36311,36195,34883,33666,32315,31933,31766,32484,33096,34057,34343,34859,34959,35328,34860,34136,32627,31734,31185,31930,32850,34110,34771,35764,36411,37757,38932,39799,38464,35663,31662,28856,27968,30093,33278,36362,37121,36278,34014,32409,31595,32330,33027,33686,33311,33015,32705,33455,34241,35350,35473,35126,33860,33072,32483,32981,33072,32545,31185,31393,32770,35083,36081,36041,34801,33845,32984,33166,33055,32915,31872,30784,29147,28349,28044,29112,30378,31983,32714,33283,32819,32175,30951,30693,31029,32201,32473,32389,31410,30768,30140,30613,31521,33121,33563,33207,31854,31143,30813,31716,32496,33301,33058,32721,32198,32743,33149,33531,32830,32196,31433,31636,31803,32420,32643,33357,33635,33976,33517,33342,33022,33501,33734,34086,33574,33223,32467,32311,32042,32416,32584,33494,34122,35232,36005,36958,36858,36364,34859,33711,32560,32314,32385,33722,35426,37651,38692,39254,39174,39356,38279,36216,32729,29872,28328,29698,32677,36373,38050,37700,35455,33375,31460,30974,31187,32611,33992,35730,36549,37079,36608,36291,35602,35360,34726,34615,34049,33867,33495,33736,34400,36500,38109,38773,37224,
