 -3.3842107e-002
 -7.6258186e-003
  2.2287853e-002
  3.9687305e-002
  5.0227357e-002
  4.6864578e-002
  3.3965562e-002
  3.8678574e-003
 -3.1399492e-002
 -6.9042535e-002
 -8.9453430e-002
 -9.0758389e-002
 -6.7720846e-002
 -4.0634585e-002
 -1.6375735e-002
 -8.4790609e-003
 -7.5588976e-003
 -1.3297370e-002
 -1.5054046e-002
 -2.0441184e-002
 -2.1010012e-002
 -2.1829794e-002
 -1.4217534e-002
 -5.4508872e-003
  5.3401187e-003
  5.6579932e-003
  2.6130893e-003
 -8.5794423e-003
 -1.6476116e-002
 -2.3720311e-002
 -2.1562110e-002
 -1.8450285e-002
 -1.1908760e-002
 -1.7663964e-002
 -3.2336385e-002
 -5.9389186e-002
 -6.3019648e-002
 -3.0378947e-002
  2.7440768e-002
  6.1687572e-002
  5.4911824e-002
  7.1637150e-003
 -4.5051369e-002
 -7.8712615e-002
 -7.1920137e-002
 -3.9647501e-002
  2.5461683e-003
  2.3174556e-002
  1.7787418e-002
 -1.4769632e-002
 -4.6456709e-002
 -6.3320793e-002
 -4.6055183e-002
 -8.8303960e-003
  3.7662945e-002
  6.6807026e-002
  7.5874817e-002
  6.0014548e-002
  4.0975533e-002
  2.4128180e-002
  2.5767744e-002
  3.7311610e-002
  5.8291333e-002
  7.0437489e-002
  7.8183591e-002
  7.4703700e-002
  7.3816997e-002
  7.1508224e-002
  7.5088496e-002
  7.3281630e-002
  7.1876289e-002
  6.2473894e-002
  5.5831988e-002
  4.7717821e-002
  4.8253188e-002
  4.9691989e-002
  5.8190952e-002
  6.0048009e-002
  6.2674657e-002
  5.9763595e-002
  6.1921796e-002
  6.2908880e-002
  7.0688442e-002
  7.3398741e-002
  7.7012474e-002
  7.0738633e-002
  6.2975801e-002
  4.6914769e-002
  3.3781529e-002
  1.9092377e-002
  1.5729599e-002
  1.5144040e-002
  2.2538807e-002
  2.5767744e-002
  3.0301639e-002
  2.9281094e-002
  3.5621856e-002
  4.1259947e-002
  5.1398474e-002
  5.1515585e-002
  4.6529973e-002
  2.9649160e-002
  1.5378264e-002
 -9.8391266e-004
 -5.5010779e-003
 -5.2835848e-003
  1.1982025e-002
  4.0105561e-002
  7.8133400e-002
  1.0468429e-001
  1.2454309e-001
  1.2517884e-001
  1.0940222e-001
  6.8128715e-002
  1.7687037e-002
 -3.6719709e-002
 -6.5311692e-002
 -6.3605207e-002
 -2.4607014e-002
  2.2940333e-002
  6.2306591e-002
  6.8362939e-002
  5.2536130e-002
  1.9677936e-002
 -5.5010779e-003
 -2.1846524e-002
 -1.8701239e-002
 -9.3323032e-003
  1.1312815e-002
  2.8712266e-002
  4.8136077e-002
  5.6283704e-002
  5.9663213e-002
  4.7533788e-002
  3.3195971e-002
  1.1814722e-002
 -2.8124252e-004
 -7.2912137e-003
 -4.4854493e-004
  4.7712904e-003
  1.1714341e-002
  2.2784844e-003
 -3.8949747e-003
  4.9051324e-003
  3.5538205e-002
  5.4359726e-002
  5.1348283e-002
  1.6047473e-002
 -1.8935462e-002
 -3.7388918e-002
 -2.0608486e-002
  1.1312815e-002
  4.5124633e-002
  5.0695804e-002
  3.1573137e-002
 -1.3983310e-002
 -5.7113873e-002
 -8.7680025e-002
 -8.6291415e-002
 -6.7034906e-002
 -3.0629901e-002
 -2.6402066e-003
  1.6264966e-002
  1.4591942e-002
  9.3386464e-003
 -2.0211876e-003
 -2.6402066e-003
 -2.4059832e-003
  5.0389743e-003
  4.6876392e-003
  4.6039880e-003
 -4.5474541e-003
 -7.4585162e-003
 -1.0988597e-002
 -3.9786259e-003
 -7.1622880e-004
  3.8343969e-003
 -2.7907788e-003
 -6.7056553e-003
 -1.4685981e-002
 -1.2762003e-002
 -1.0536881e-002
 -6.8276832e-004
  3.0648058e-003
  9.0709625e-003
  4.3195739e-003
  1.2077490e-003
 -8.0775351e-003
 -1.0118625e-002
 -1.3447943e-002
 -7.5756278e-003
 -6.5885436e-003
 -1.0006429e-003
 -2.8242392e-003
 -1.4858199e-003
 -6.0197154e-003
 -4.0288166e-003
 -5.8858734e-003
 -2.8124252e-004
  9.0660463e-004
  6.5279658e-003
  4.6374485e-003
  5.5408816e-003
 -1.8036945e-003
 -4.5976448e-003
 -1.2912575e-002
 -1.3782547e-002
 -1.6978024e-002
 -1.3263910e-002
 -1.5187888e-002
 -1.0369578e-002
 -9.6167173e-003
 -3.3143324e-004
  5.5408816e-003
  1.4809435e-002
  1.1664150e-002
  5.8754864e-003
 -1.1724728e-002
 -2.2248050e-002
 -2.9542435e-002
 -2.4573553e-002
 -2.1913445e-002
 -1.0854755e-002
 -7.6641952e-004
  2.2438426e-002
  4.1611282e-002
  6.2340052e-002
  7.5958468e-002
  9.0446858e-002
  8.2315960e-002
  5.4593950e-002
 -9.1699170e-004
 -5.5641612e-002
 -9.4756917e-002
 -8.8483076e-002
 -5.0622539e-002
  8.6527065e-003
  4.8336840e-002
  6.1603921e-002
  3.9168667e-002
  8.0169573e-003
 -2.4891428e-002
 -3.6518946e-002
 -3.5950118e-002
 -1.6894372e-002
  2.4290566e-003
  2.6453684e-002
  3.9202128e-002
  5.0227357e-002
  4.5559619e-002
  3.7311610e-002
  1.7218590e-002
  1.8602284e-003
 -1.4301185e-002
 -1.4602329e-002
 -1.2076063e-002
 -4.9873566e-004
  1.6929260e-003
 -1.8873457e-003
 -1.6526307e-002
 -5.3672360e-003
  2.3258207e-002
  5.6049481e-002
  5.4359726e-002
  2.3458970e-002
 -2.5460256e-002
 -4.9501613e-002
 -4.4817146e-002
 -5.2333940e-003
  3.3647687e-002
  5.7304249e-002
  4.2062999e-002
  3.8009364e-003
 -5.0020251e-002
 -8.4718772e-002
 -9.8571412e-002
 -7.9716430e-002
 -5.0187553e-002
 -1.3548324e-002
  5.3401187e-003
  1.5093849e-002
  7.8161944e-003
  3.7340155e-003
 -2.6569368e-003
  1.3415909e-003
 -6.6603807e-004
 -7.1622880e-004
 -1.2360477e-002
 -1.9336988e-002
 -2.7283852e-002
 -2.0725598e-002
 -1.3012956e-002
  3.4830618e-003
  8.5523250e-003
  8.4352133e-003
 -7.5087069e-003
 -2.1010012e-002
 -3.6301453e-002
 -3.8426193e-002
 -4.2809517e-002
 -4.0567664e-002
 -4.6439979e-002
 -4.9300850e-002
 -5.8050767e-002
 -5.6210440e-002
 -5.4453765e-002
 -4.1186683e-002
 -3.3055786e-002
 -2.3703581e-002
 -2.8103634e-002
 -3.3524233e-002
 -4.8815673e-002
 -5.6461394e-002
 -6.6031092e-002
 -6.4224226e-002
 -6.2768695e-002
 -5.1509242e-002
 -4.7410333e-002
 -4.2575293e-002
 -5.0471967e-002
 -5.5474310e-002
 -6.5612836e-002
 -6.6532999e-002
 -6.9778666e-002
 -6.1396815e-002
 -5.6327552e-002
 -4.6055183e-002
 -4.7611096e-002
 -4.9986790e-002
 -6.1932183e-002
 -6.3772509e-002
 -6.5813599e-002
 -5.4788370e-002
 -4.7259761e-002
 -3.8576766e-002
 -4.4449080e-002
 -4.7326682e-002
 -5.5005863e-002
 -5.3349569e-002
 -5.2579978e-002
 -3.7740253e-002
 -1.9905816e-002
  7.7660037e-003
  2.1384420e-002
  3.1957933e-002
  3.2325998e-002
  3.4551120e-002
  2.1250578e-002
  7.8949294e-004
 -3.8560035e-002
 -7.4429673e-002
 -1.0543081e-001
 -1.0717076e-001
 -9.1277026e-002
 -5.5892566e-002
 -2.8722653e-002
 -6.8227670e-003
 -6.5718134e-003
 -1.1557425e-002
 -2.8019983e-002
 -3.6318183e-002
 -4.2525103e-002
 -3.1165268e-002
 -1.8751429e-002
  1.9438796e-003
  1.0727256e-002
  1.3504477e-002
 -3.1588441e-003
 -1.8517206e-002
 -3.6602597e-002
 -3.7974477e-002
 -3.5883197e-002
 -2.2599385e-002
 -1.8115680e-002
 -1.6459386e-002
 -3.7255076e-002
 -5.9238614e-002
 -6.3705588e-002
 -2.3937804e-002
  2.1668834e-002
  4.9742180e-002
  2.7892484e-002
 -1.7028214e-002
 -7.0012889e-002
 -9.3652721e-002
 -8.7680025e-002
 -4.5820960e-002
 -6.7893065e-003
  1.7887800e-002
  3.7005550e-003
 -3.0094533e-002
 -7.4998501e-002
 -9.3920405e-002
 -8.8700569e-002
 -5.1860577e-002
 -1.6241893e-002
  1.2500662e-002
  1.2550853e-002
 -5.4892638e-004
 -2.8940146e-002
 -4.4716764e-002
 -5.3834746e-002
 -4.2909898e-002
 -3.1750827e-002
 -1.4133883e-002
 -6.6889250e-003
  4.5872578e-003
  7.3142872e-003
  1.6917446e-002
  2.0464257e-002
  3.0837007e-002
  3.3965562e-002
  4.2631827e-002
  4.3401418e-002
  5.1984032e-002
  5.5229699e-002
  6.5836672e-002
  7.1106698e-002
  8.4674924e-002
  9.1283370e-002
  1.0361356e-001
  1.0664173e-001
  1.1196195e-001
  1.0583868e-001
  1.0068577e-001
  8.3604189e-002
  7.2277815e-002
  5.5865448e-002
  5.0879836e-002
  4.6011336e-002
  5.3824359e-002
  5.6701960e-002
  6.4682286e-002
  6.2122559e-002
  6.2908880e-002
  5.5781797e-002
  5.5547574e-002
  5.1682888e-002
  5.9596292e-002
  6.4213839e-002
  7.6477106e-002
  7.9839884e-002
  8.2901519e-002
  7.2077052e-002
  6.2239670e-002
  4.2732209e-002
  3.2760985e-002
  2.4278752e-002
  3.5521474e-002
  5.5497383e-002
  8.9593615e-002
  1.1067372e-001
  1.2777203e-001
  1.2949524e-001
  1.2887622e-001
  1.0918473e-001
  7.9304517e-002
  2.7557879e-002
 -1.6057860e-002
 -4.3478726e-002
 -2.9241291e-002
  6.1431703e-003
  5.3121689e-002
  7.5255798e-002
  7.7531111e-002
  5.1950572e-002
  2.4446055e-002
 -3.8615142e-003
 -1.1691267e-002
 -1.0637262e-002
  1.0978210e-002
  3.1807361e-002
  5.7906538e-002
  7.0102884e-002
  7.7397269e-002
  6.5468607e-002
  5.2536130e-002
  3.0703165e-002
  1.9895429e-002
  1.0175158e-002
  1.4826166e-002
  1.6649762e-002
  2.3860496e-002
  1.5010198e-002
  5.6747235e-003
  4.1020808e-003
  3.2125235e-002
  5.7655584e-002
  6.9617707e-002
  4.3150465e-002
  6.3606634e-003
 -2.8505160e-002
 -2.9191100e-002
 -7.6425488e-003
  3.2376189e-002
  5.3473024e-002
  5.4276075e-002
  1.9125838e-002
 -2.5142382e-002
 -7.0196922e-002
 -8.4702042e-002
 -7.7390926e-002
 -4.2324340e-002
 -1.1055518e-002
  1.4909817e-002
  1.6398808e-002
  1.1429927e-002
 -3.7109420e-003
 -5.2668545e-003
 -5.9527944e-003
  3.2990292e-003
  3.8009364e-003
  5.2899279e-003
 -3.9451654e-003
 -5.5178081e-003
 -9.1148101e-003
 -4.7019136e-005
  4.4868763e-003
  1.2065676e-002
  5.9758678e-003
  1.2077490e-003
 -1.1022058e-002
 -1.1691267e-002
 -1.3598515e-002
 -4.2463098e-003
  6.8911149e-004
  1.1145512e-002
  9.1713440e-003
  9.1211533e-003
 -7.8314977e-004
 -3.9618957e-003
 -1.0988597e-002
 -6.6721948e-003
 -7.2075625e-003
 -1.5360106e-003
 -5.5847291e-003
 -4.9657102e-003
 -1.0034973e-002
 -5.0326311e-003
 -4.3132307e-003
  4.6374485e-003
  5.0389743e-003
  9.8070932e-003
  5.0724348e-003
  3.4161409e-003
 -7.7763907e-003
 -1.1256281e-002
 -1.8801620e-002
 -1.4250994e-002
 -1.0152085e-002
  3.6336340e-003
  9.4055674e-003
  2.0296955e-002
  2.3241477e-002
  3.2493301e-002
  3.0736625e-002
  2.7424038e-002
  9.2215347e-003
 -4.7984077e-003
 -2.0775788e-002
 -2.0374263e-002
 -2.0575026e-002
 -1.3882929e-002
 -1.3314101e-002
  8.7314415e-004
  1.6800334e-002
  4.1694934e-002
  5.8224412e-002
  7.9170675e-002
  8.2433072e-002
  6.8931767e-002
  2.1066546e-002
 -3.6502216e-002
 -9.3937135e-002
 -1.1244078e-001
 -9.3385037e-002
 -3.5916657e-002
  1.6800334e-002
  5.1114060e-002
  4.3568721e-002
  1.8239135e-002
 -1.8433555e-002
 -3.7639872e-002
 -4.6473440e-002
 -3.3055786e-002
 -1.8299713e-002
  4.8549416e-003
  1.9276410e-002
  3.5287251e-002
  3.7629485e-002
  3.8482727e-002
  2.3927417e-002
  1.1379736e-002
 -7.0235299e-003
 -1.2711812e-002
 -1.5924018e-002
 -5.5178081e-003
 -2.3725227e-003
  1.3415909e-003
 -1.3498133e-002
 -2.1311156e-002
 -1.0787834e-002
  2.8444582e-002
  5.3774168e-002
  5.3824359e-002
  1.4073305e-002
 -2.6731754e-002
 -5.0739651e-002
 -3.2804832e-002
  2.7636615e-003
  4.3752753e-002
  5.2987847e-002
  3.4601311e-002
 -1.4803092e-002
 -6.1012019e-002
 -9.5610159e-002
 -9.5141712e-002
 -7.6989400e-002
 -3.9697692e-002
 -1.0235736e-002
  1.3119681e-002
  1.4424640e-002
  1.2885458e-002
  3.1651872e-003
  3.9013179e-003
  2.1948332e-003
  7.1804452e-003
  9.7352560e-004
 -3.7611328e-003
 -1.8048759e-002
 -2.0976551e-002
 -2.0759058e-002
 -6.2706690e-003
  2.8305824e-003
  1.1948564e-002
  4.6039880e-003
 -2.3056017e-003
 -1.5254809e-002
 -1.6208433e-002
 -1.5405381e-002
 -3.0082719e-003
  1.5088933e-003
  7.1804452e-003
 -2.8124252e-004
 -5.2835848e-003
 -1.5639604e-002
 -1.4786362e-002
 -1.5405381e-002
 -6.0364456e-003
 -4.0120864e-003
  4.5488811e-004
 -4.8820590e-003
 -5.2166638e-003
 -1.1022058e-002
 -6.5885436e-003
 -5.7854920e-003
  2.0777215e-003
  3.1484570e-003
  7.7994642e-003
  2.1613728e-003
 -1.4740059e-004
 -9.9178617e-003
 -1.1674537e-002
 -1.6860912e-002
 -1.3966580e-002
 -1.6342274e-002
 -1.1724728e-002
 -1.3431212e-002
 -8.0775351e-003
 -5.8858734e-003
  6.0929795e-003
  1.1915104e-002
  1.8573740e-002
  8.4184831e-003
 -3.2926860e-003
 -2.1260965e-002
 -2.6179656e-002
 -2.9140909e-002
 -2.1394807e-002
 -1.7981838e-002
 -3.2592255e-003
  1.3889272e-002
  4.0925343e-002
  6.0583376e-002
  8.4976069e-002
  9.5231707e-002
  9.0731272e-002
  5.1415204e-002
 -3.9786259e-003
 -6.6365697e-002
 -9.7601058e-002
 -9.3769832e-002
 -4.5636927e-002
  1.0007856e-002
  5.5380271e-002
  6.1118744e-002
  4.1945887e-002
  2.8473127e-003
 -2.4038186e-002
 -4.0550934e-002
 -3.3156167e-002
 -1.8634318e-002
  7.1302545e-003
  2.6119079e-002
  4.5693461e-002
  4.9257003e-002
  4.7399946e-002
  3.0368560e-002
  1.4558482e-002
 -5.1162823e-003
 -1.0352848e-002
 -1.1992412e-002
 -1.1010244e-003
  3.4496014e-003
  6.7956497e-003
 -7.4417859e-003
 -1.8885271e-002
 -1.4736171e-002
  2.1719025e-002
  5.2803814e-002
  6.0064739e-002
  2.4947962e-002
 -1.8717969e-002
 -5.0672730e-002
 -4.1002651e-002
 -7.5254371e-003
  3.7512373e-002
  5.6635039e-002
  4.7751281e-002
  3.7507457e-003
 -4.5235402e-002
 -8.9185746e-002
 -1.0193419e-001
 -9.1193375e-002
 -5.4269732e-002
 -1.8684508e-002
  1.2048946e-002
  1.8155484e-002
  1.5545566e-002
  3.1317268e-003
 -2.9797276e-004
 -4.5139936e-003
 -1.8873457e-003
 -1.0453229e-002
 -2.3435897e-002
 -5.1810387e-002
 -7.5901934e-002
 -9.6112066e-002
 -9.5643620e-002
 -8.7111196e-002
 -6.4107114e-002
 -4.5586737e-002
 -2.7869411e-002
 -2.5610828e-002
 -2.7902871e-002
 -4.2575293e-002
 -5.2462866e-002
 -6.6666841e-002
 -7.3392398e-002
 -8.1540026e-002
 -7.8829727e-002
 -7.8327820e-002
 -7.0598448e-002
 -6.8456977e-002
 -6.3086569e-002
 -6.4374798e-002
 -6.2015834e-002
 -6.7804498e-002
 -6.9427331e-002
 -7.5701172e-002
 -7.3392398e-002
 -7.1669183e-002
 -6.0610494e-002
 -5.4085699e-002
 -4.4449080e-002
 -4.6339598e-002
 -4.7895510e-002
 -5.6528315e-002
 -5.7699432e-002
 -5.8435562e-002
 -4.7962431e-002
 -3.9011752e-002
 -2.5092191e-002
 -2.3569739e-002
 -2.8505160e-002
 -4.7243031e-002
 -6.2132946e-002
 -7.6889019e-002
 -7.4714087e-002
 -6.3739049e-002
 -4.0015566e-002
 -2.3636660e-002
 -1.4719441e-002
 -2.5242763e-002
 -3.6535676e-002
 -5.1525972e-002
 -5.2579978e-002
 -4.3445266e-002
 -1.4468487e-002
  1.5980552e-002
  4.2029538e-002
  4.4371772e-002
  4.0490356e-002
  3.1021039e-002
  2.6152539e-002
  1.1363006e-002
 -7.6760093e-003
 -4.1353986e-002
 -7.1451690e-002
 -9.4004056e-002
 -8.9470160e-002
 -6.7553544e-002
 -2.9559165e-002
 -2.4778203e-004
  2.0112922e-002
  2.0581369e-002
  1.3521207e-002
 -3.8949747e-003
 -1.3180259e-002
 -1.9169685e-002
 -1.1122439e-002
 -3.3261465e-003
  6.5781565e-003
  3.6838247e-003
 -1.7033131e-003
 -1.2996226e-002
 -1.4284455e-002
 -1.3012956e-002
 -3.1421138e-003
  1.7933074e-003
  5.0557045e-003
 -7.8433117e-003
 -2.7802490e-002
 -5.6444664e-002
 -5.5323737e-002
 -1.5739986e-002
  4.7399946e-002
  8.4239938e-002
  7.9371438e-002
  3.0736625e-002
 -2.2616115e-002
 -5.8519213e-002
 -5.0187553e-002
 -8.9307774e-003
  5.0361199e-002
  8.6431600e-002
  9.0346476e-002
  5.9629753e-002
  2.3291668e-002
 -3.4599884e-003
  1.9940703e-003
  2.6671177e-002
  6.2758308e-002
  8.3855142e-002
  8.8188275e-002
  6.8597162e-002
  4.5024252e-002
  2.4479515e-002
  2.7240005e-002
  4.5409047e-002
  7.5255798e-002
  9.6068219e-002
  1.0772920e-001
  1.0150555e-001
  9.0898574e-002
  7.4753891e-002
  6.8580432e-002
  6.8245827e-002
  7.9605661e-002
  8.8639992e-002
  9.9096392e-002
  9.7741243e-002
  9.2655249e-002
  7.8919721e-002
  6.7576617e-002
  5.4158964e-002
  5.1599237e-002
  5.2770354e-002
  6.4113457e-002
  7.4251984e-002
  8.4373780e-002
  8.2048276e-002
  7.6560757e-002
  6.5067081e-002
  6.0667028e-002
  5.4577220e-002
  4.9658529e-002
  3.7144308e-002
  2.7089433e-002
  1.6883985e-002
  1.8975266e-002
  2.4395864e-002
  3.6123763e-002
  4.4254661e-002
  5.6768881e-002
  6.5184193e-002
  7.5172147e-002
  7.5423101e-002
  6.8580432e-002
  4.6948229e-002
  2.3793575e-002
  2.1111820e-003
 -4.3968819e-003
 -2.6402066e-003
  1.4073305e-002
  4.0523817e-002
  7.7380539e-002
  1.0776266e-001
  1.3486565e-001
  1.4860118e-001
  1.4671066e-001
  1.1604413e-001
  6.5585719e-002
 -1.6029316e-003
 -5.4085699e-002
 -7.4429673e-002
 -5.0237744e-002
 -1.0173731e-003
  5.6534658e-002
  8.9961681e-002
  9.4830181e-002
  6.7124901e-002
  2.8528233e-002
 -7.5254371e-003
 -1.8500476e-002
 -5.7018408e-003
  2.7507689e-002
  5.3372642e-002
  6.3578090e-002
  5.3539945e-002
  3.9018095e-002
  2.5349488e-002
  2.6989051e-002
  3.4935916e-002
  4.6697276e-002
  4.2832590e-002
  2.3576082e-002
 -5.7687618e-003
 -2.6045815e-002
 -3.6652788e-002
 -3.4377475e-002
 -1.8048759e-002
  2.5332757e-002
  7.0420758e-002
  9.1433942e-002
  6.2356782e-002
  1.2579397e-003
 -5.8719976e-002
 -7.4580245e-002
 -4.3093931e-002
  1.3972923e-002
  5.2301907e-002
  5.9746864e-002
  3.3129050e-002
 -4.9657102e-003
 -3.8141779e-002
 -5.1208098e-002
 -5.5056053e-002
 -4.9836218e-002
 -4.6155565e-002
 -3.9597310e-002
 -2.9810119e-002
 -7.3079440e-003
  1.5261152e-002
  2.9799732e-002
  2.2053630e-002
  2.2282937e-003
 -2.3000911e-002
 -3.6585867e-002
 -3.7037583e-002
 -2.3184943e-002
 -1.2327016e-002
 -6.2037480e-003
 -9.6836383e-003
 -1.6760530e-002
 -2.7902871e-002
 -3.2905214e-002
 -3.2068702e-002
 -2.0073118e-002
 -7.4250557e-003
  4.3363042e-003
  5.3903094e-003
 -2.2554110e-003
 -1.9705053e-002
 -3.3574423e-002
 -4.2976819e-002
 -4.1287065e-002
 -3.2219274e-002
 -1.4552139e-002
 -8.5007073e-004
  7.0633335e-003
 -8.6680097e-004
 -1.5639604e-002
 -3.0629901e-002
 -3.1817748e-002
 -2.3385706e-002
 -9.3323032e-003
 -3.8113235e-003
 -2.7740485e-003
 -4.7816775e-003
 -1.2683268e-003
  2.1111820e-003
  4.1020808e-003
 -4.7816775e-003
 -1.9554481e-002
 -3.8744068e-002
 -5.2948043e-002
 -5.8719976e-002
 -4.8581450e-002
 -3.0278566e-002
 -5.4843477e-003
  1.4407910e-002
  2.4027799e-002
  1.5595757e-002
 -1.7535038e-003
 -2.2616115e-002
 -3.5448210e-002
 -4.1136492e-002
 -3.7154695e-002
 -3.0830664e-002
 -2.0357532e-002
 -9.0646193e-003
  1.0409382e-002
  3.0652974e-002
  4.6981690e-002
  5.6902723e-002
  6.7727190e-002
  7.1340922e-002
  6.1018363e-002
  2.7306926e-002
 -1.9771974e-002
 -6.2116215e-002
 -7.6822098e-002
 -5.9773982e-002
 -1.7931647e-002
  2.0062731e-002
  3.7161038e-002
  2.7306926e-002
  4.4701461e-003
 -1.7881457e-002
 -2.6848866e-002
 -2.5025270e-002
 -1.2577970e-002
  3.4328711e-003
  2.2773030e-002
  4.2062999e-002
  5.9027464e-002
  5.9730134e-002
  4.3234116e-002
  1.4859626e-002
 -1.2327016e-002
 -3.1299110e-002
 -2.9592626e-002
 -6.8060367e-003
  2.1802676e-002
  3.0937388e-002
  1.6649762e-002
 -1.1574156e-002
 -2.1645761e-002
  6.9294916e-003
  6.3009261e-002
  1.0511928e-001
  1.0132151e-001
  4.8470681e-002
 -1.8467015e-002
 -6.3739049e-002
 -6.7369511e-002
 -3.8493114e-002
  3.4328711e-003
  3.3045399e-002
  3.6441638e-002
  1.2249708e-002
 -2.4690665e-002
 -5.9054581e-002
 -7.3643352e-002
 -6.6231855e-002
 -4.1504558e-002
 -1.0419769e-002
  1.6114394e-002
  2.6403493e-002
  2.1785946e-002
  6.0929795e-003
 -1.1122439e-002
 -2.3335515e-002
 -2.6781945e-002
 -2.8421509e-002
 -2.9793389e-002
 -3.0947775e-002
 -2.7802490e-002
 -2.1796333e-002
 -1.3966580e-002
 -8.7132843e-003
 -3.4934489e-003
  2.2115635e-003
  1.0074777e-002
  1.3437556e-002
  4.5370671e-003
 -1.4752901e-002
 -2.9207830e-002
 -3.0562980e-002
 -1.8165871e-002
 -7.8314977e-004
  1.1463387e-002
  1.3537937e-002
  1.0158428e-002
  5.9925981e-003
  4.7880207e-003
  7.9165759e-003
  1.1547038e-002
  8.7363577e-003
  3.0431594e-004
 -8.5125214e-003
 -7.8265815e-003
  4.9553231e-003
  2.1083276e-002
  2.8277280e-002
  2.4211831e-002
  1.4056575e-002
  3.6336340e-003
 -6.9733392e-003
 -1.8165871e-002
 -3.0395677e-002
 -4.0818618e-002
 -4.4248317e-002
 -3.7104504e-002
 -2.6363689e-002
 -2.1394807e-002
 -2.4071646e-002
 -2.9994152e-002
 -3.4561508e-002
 -3.9396547e-002
 -5.0589079e-002
 -7.0715560e-002
 -9.5727271e-002
 -1.1466590e-001
 -1.1039969e-001
 -7.6403842e-002
 -2.2683036e-002
  3.4099404e-002
  7.6259613e-002
  9.5817265e-002
  9.3240808e-002
  6.7175092e-002
  2.0096192e-002
 -3.8526575e-002
 -9.2799478e-002
 -1.2619304e-001
 -1.2815048e-001
 -1.0338972e-001
 -7.1618993e-002
 -5.4002048e-002
 -5.2747280e-002
 -6.0208968e-002
 -6.7419702e-002
 -6.9444061e-002
 -6.1781611e-002
 -4.4131206e-002
 -1.7647233e-002
  9.6397907e-003
  2.8645345e-002
  2.5650632e-002
 -1.0842941e-003
 -3.9028482e-002
 -7.1434960e-002
 -9.2933320e-002
 -9.6045145e-002
 -7.7474577e-002
 -3.9848264e-002
  2.0393449e-004
  2.1903058e-002
  9.4055674e-003
 -3.5950118e-002
 -9.5559968e-002
 -1.2110705e-001
 -8.6475447e-002
 -1.5489032e-002
  3.8298695e-002
  4.1795315e-002
 -2.4059832e-003
 -5.9807442e-002
 -9.6881657e-002
 -9.5877843e-002
 -6.3454635e-002
 -1.9989467e-002
  4.3697646e-003
 -7.4585162e-003
 -5.0923684e-002
 -9.8220077e-002
 -1.2502192e-001
 -1.1526819e-001
 -7.4496594e-002
 -2.1394807e-002
  1.7653576e-002
  3.4935916e-002
  2.8511503e-002
 -1.2515965e-003
 -4.8062812e-002
 -8.1506565e-002
 -8.3965911e-002
 -5.8619595e-002
 -2.7534806e-002
 -5.6014593e-003
 -7.4968928e-004
 -6.9733392e-003
 -2.1110393e-002
 -3.2754641e-002
 -3.4461126e-002
 -2.0692137e-002
 -3.4265279e-003
  6.3104727e-003
 -1.9040760e-003
 -1.9771974e-002
 -3.6385104e-002
 -4.2240688e-002
 -4.0651315e-002
 -3.3474042e-002
 -3.0312026e-002
 -2.9877040e-002
 -3.0178184e-002
 -2.3553009e-002
 -1.3615245e-002
 -1.9877272e-003
  8.6822797e-005
 -4.9991706e-003
 -1.4518678e-002
 -2.0106579e-002
 -2.3168213e-002
 -1.9052574e-002
 -1.2812193e-002
 -3.0584626e-003
  1.1575583e-003
 -4.4136122e-003
 -2.4991809e-002
 -4.7661287e-002
 -6.1413545e-002
 -5.2931313e-002
 -2.6815406e-002
  9.5561395e-003
  4.0072100e-002
  5.8391715e-002
  5.8759780e-002
  5.3188610e-002
  4.3066813e-002
  3.7144308e-002
  4.0423435e-002
  6.3829043e-002
  9.9949635e-002
  1.3511660e-001
  1.4671066e-001
  1.3906494e-001
  1.2561383e-001
  1.2374004e-001
  1.2370658e-001
  1.1146004e-001
  7.0504410e-002
  1.7001097e-002
 -2.3502818e-002
 -2.4071646e-002
  9.9911258e-003
  6.1252586e-002
  1.0163939e-001
  1.2114685e-001
  1.1328364e-001
  8.9526694e-002
  6.0683758e-002
  4.5141363e-002
  4.2146650e-002
  5.4393187e-002
  7.0638252e-002
  8.7335033e-002
  9.4529037e-002
  9.4930562e-002
  8.5126641e-002
  7.8852800e-002
  7.5941738e-002
  7.4118142e-002
  6.1938526e-002
  4.7399946e-002
  3.3078859e-002
  2.9548778e-002
  3.3329813e-002
  5.6250244e-002
  8.8020973e-002
  1.1428745e-001
  1.1261443e-001
  8.5277213e-002
  4.2615097e-002
  1.2199518e-002
  4.3028437e-003
  2.2706109e-002
  4.6379401e-002
  6.3410787e-002
  5.8709589e-002
  4.0239403e-002
  1.3688509e-002
 -3.5101791e-003
 -1.0034973e-002
 -3.2759558e-003
  1.3081304e-003
  8.4686738e-003
  1.5411724e-002
  2.6303111e-002
  3.0987579e-002
  3.3229431e-002
  3.0167797e-002
  2.8829378e-002
  1.9845238e-002
  8.6694367e-003
 -3.8782445e-003
 -5.0995521e-003
 -3.9835421e-004
  1.5328073e-002
  3.1723710e-002
  4.4555805e-002
  4.1628013e-002
  3.0251448e-002
  8.8534694e-003
 -9.0813496e-003
 -2.1595570e-002
 -1.4752901e-002
  3.4830618e-003
  2.7608070e-002
  3.6525289e-002
  2.9431667e-002
  4.0686203e-003
 -1.7044945e-002
 -2.4690665e-002
 -1.0670723e-002
  7.4481291e-003
  2.3040714e-002
  2.1468072e-002
  1.6649762e-002
  7.4648593e-003
 -2.0379179e-003
 -1.4167343e-002
 -1.3464673e-002
 -4.3132307e-003
  1.3604858e-002
  2.5014883e-002
  3.0586053e-002
  2.4596627e-002
  2.0330415e-002
  1.1195703e-002
  3.0815360e-003
 -1.0536881e-002
 -1.9152955e-002
 -2.5911973e-002
 -2.1143854e-002
 -1.2527779e-002
  5.6747235e-003
  2.2722840e-002
  3.7913899e-002
  3.5705507e-002
  1.9627745e-002
 -9.7003685e-003
 -3.1533334e-002
 -4.6757854e-002
 -4.7594366e-002
 -3.9680961e-002
 -1.8751429e-002
  3.6838247e-003
  3.1071230e-002
  5.1147520e-002
  7.3465662e-002
  9.3040045e-002
  1.0627367e-001
  8.7686368e-002
  3.7780057e-002
 -3.7472570e-002
 -9.9407924e-002
 -1.2641053e-001
 -1.0071288e-001
 -4.2023195e-002
  2.8076517e-002
  6.9634437e-002
  7.6309803e-002
  4.7751281e-002
  1.2918918e-002
 -1.5355190e-002
 -2.0993282e-002
 -1.6191702e-002
 -1.3519780e-003
  9.6063303e-003
  2.2522077e-002
  2.9716081e-002
  3.8716951e-002
  3.9001365e-002
  3.7328341e-002
  2.3977608e-002
  8.2846412e-003
 -9.1650008e-003
 -1.1975681e-002
 -8.8638565e-003
  2.8640429e-003
  7.6656222e-003
  5.8587561e-003
 -5.3003150e-003
  5.8420259e-003
  3.2024854e-002
  6.0165120e-002
  5.6785612e-002
  2.8126708e-002
 -1.0453229e-002
 -2.7802490e-002
 -2.2181129e-002
  9.3721069e-003
  3.7328341e-002
  5.3389372e-002
  3.6742782e-002
 -4.8485985e-003
 -5.6444664e-002
 -8.2610761e-002
 -9.0473975e-002
 -7.8461661e-002
 -5.9623409e-002
 -3.3223088e-002
 -1.8182601e-002
 -1.0871485e-002
 -1.6844182e-002
 -1.6442656e-002
 -9.4661451e-003
  1.0275540e-002
  1.9828508e-002
  1.8640661e-002
  7.0584174e-004
 -1.5304999e-002
 -2.9090719e-002
 -2.8789574e-002
 -2.6045815e-002
 -1.7864726e-002
 -1.9805434e-002
 -2.1260965e-002
 -2.7601727e-002
 -2.3184943e-002
 -1.3146798e-002
  5.4572303e-003
  1.4407910e-002
  2.0196573e-002
  1.3454286e-002
  9.9409351e-003
  5.3066582e-003
  7.6823525e-003
  9.0375020e-003
  2.1217118e-002
  2.6972321e-002
  2.6001967e-002
  8.3348319e-003
 -9.1148101e-003
 -2.9860310e-002
 -3.6134150e-002
 -3.5029954e-002
 -2.3000911e-002
 -1.7864726e-002
 -1.3247180e-002
 -1.8032029e-002
 -1.9688323e-002
 -2.5292954e-002
 -2.1026742e-002
 -1.8734699e-002
 -1.4936934e-002
 -2.0909630e-002
 -2.4690665e-002
 -3.3858837e-002
 -3.4159982e-002
 -3.3741726e-002
 -2.5292954e-002
 -2.2900529e-002
 -1.5338460e-002
 -1.1122439e-002
  6.2219053e-004
  6.6952682e-003
  1.2567583e-002
  6.4443146e-003
  1.1408280e-003
 -7.8935024e-003
 -7.9938839e-003
 -1.3983310e-002
 -1.8232792e-002
 -2.6029084e-002
 -2.0892900e-002
 -1.4117152e-002
 -3.1923046e-003
  5.7199980e-004
  1.2534123e-002
  1.6281697e-002
  8.0336875e-003
 -2.6564452e-002
 -6.6432618e-002
 -1.0263686e-001
 -1.0581561e-001
 -8.2092124e-002
 -3.8643686e-002
 -1.2527779e-002
 -8.3452190e-003
 -3.6585867e-002
 -7.2689728e-002
 -1.0799054e-001
 -1.1876481e-001
 -1.1290923e-001
 -8.6927164e-002
 -6.0878178e-002
 -2.8873225e-002
 -8.2782980e-003
  5.3401187e-003
  1.9438796e-003
 -5.0493614e-003
 -2.6464071e-002
 -4.8598180e-002
 -7.3810654e-002
 -8.2694413e-002
 -8.2460189e-002
 -6.4140575e-002
 -4.8096273e-002
 -3.7790444e-002
 -5.5608151e-002
 -7.5918665e-002
 -7.5048692e-002
 -3.5749355e-002
 -6.3257759e-004
  7.8998456e-003
 -2.6263308e-002
 -6.5194580e-002
 -8.9670923e-002
 -7.7625149e-002
 -4.9217199e-002
 -1.3247180e-002
 -2.5900159e-003
 -1.6325544e-002
 -5.8820358e-002
 -1.0231899e-001
 -1.3748595e-001
 -1.3845631e-001
 -1.1456552e-001
 -6.5679757e-002
 -2.2097478e-002
  1.0242079e-002
  1.2299899e-002
 -5.0828219e-003
 -4.4064285e-002
 -7.4061608e-002
 -9.3502149e-002
 -9.0373593e-002
 -8.2025203e-002
 -6.4107114e-002
 -5.3868206e-002
 -4.1722051e-002
 -3.8710607e-002
 -3.1299110e-002
 -2.9408593e-002
 -2.2398622e-002
 -2.3285325e-002
 -1.8249522e-002
 -1.9989467e-002
 -2.0173500e-002
 -3.1131808e-002
 -3.7472570e-002
 -4.4315238e-002
 -3.8292351e-002
 -3.4879382e-002
 -2.4657205e-002
 -2.3402436e-002
 -2.3435897e-002
 -3.5782815e-002
 -4.3679489e-002
 -5.2613438e-002
 -4.5118290e-002
 -3.5598783e-002
 -1.8885271e-002
 -1.3347561e-002
 -4.3132307e-003
 -2.4561739e-003
  4.6541787e-003
  6.6785380e-003
  1.3956193e-002
  7.4313989e-003
 -6.0364456e-003
 -3.0780473e-002
 -4.1805702e-002
 -4.5988263e-002
 -2.9776658e-002
 -3.9284352e-003
  3.3062129e-002
  4.9039510e-002
  4.4371772e-002
  1.6633032e-002
 -3.4816348e-004
 -2.1717598e-003
  2.4881041e-002
  5.8006919e-002
  9.5867456e-002
  1.1442129e-001
  1.2081225e-001
  1.0966991e-001
  1.1062353e-001
  1.2253546e-001
  1.4804908e-001
  1.5224837e-001
  1.2892641e-001
  6.6622994e-002
  1.7047400e-004
 -4.8129733e-002
 -4.1052841e-002
  6.0929795e-003
  7.9287786e-002
  1.3207170e-001
  1.5243240e-001
  1.2574767e-001
  7.8785879e-002
  2.2053630e-002
 -7.6425488e-003
 -1.0436499e-002
  1.8423168e-002
  4.9006049e-002
  7.9823154e-002
  9.0748002e-002
  9.4043860e-002
  8.1880974e-002
  7.5004845e-002
  6.8413129e-002
  7.5791166e-002
  7.7598032e-002
  7.7430730e-002
  5.7538472e-002
  3.3731339e-002
  3.7340155e-003
  2.6967405e-003
  2.5884855e-002
  6.8664083e-002
  9.2487947e-002
  9.3826366e-002
  6.1905065e-002
  2.1033085e-002
 -2.1143854e-002
 -3.0529519e-002
 -1.6409195e-002
  2.1869597e-002
  5.2285177e-002
  7.1156889e-002
  5.8257873e-002
  3.3313083e-002
 -2.3390622e-003
 -2.0541565e-002
 -2.4155297e-002
 -3.1086533e-003
  1.5963822e-002
  3.2008124e-002
  2.4412594e-002
  1.1446657e-002
 -8.9642379e-003
 -1.3230450e-002
 -9.3992242e-003
  1.1178973e-002
  2.6637716e-002
  4.3016623e-002
  4.2732209e-002
  3.8332155e-002
  2.2488616e-002
  1.4257337e-002
  3.4328711e-003
  3.4663316e-003
 -5.9911711e-004
  1.9271494e-003
 -1.8204247e-003
  3.3826804e-003
  4.8549416e-003
  1.4391179e-002
  1.4525021e-002
  1.7151669e-002
  1.0108238e-002
  8.2009900e-003
 -6.3257759e-004
 -5.6565662e-004
 -3.9284352e-003
  1.7598470e-003
  1.5925445e-003
  6.8458404e-003
  3.5834433e-003
  3.5667130e-003
 -5.8858734e-003
 -4.5307239e-003
 -2.4394437e-003
  8.9036601e-003
  1.1095322e-002
  1.5428454e-002
  8.6527065e-003
  7.2640964e-003
 -2.8124252e-004
 -1.5192804e-003
 -1.0503420e-002
 -1.2360477e-002
 -1.9370448e-002
 -1.5054046e-002
 -1.0135355e-002
  8.7363577e-003
  2.3760115e-002
  3.9904798e-002
  3.4350358e-002
  1.9309870e-002
 -1.0453229e-002
 -2.9810119e-002
 -4.3512187e-002
 -3.6318183e-002
 -2.5343144e-002
 -1.2014058e-003
  1.9594284e-002
  4.5626540e-002
  6.0349153e-002
  8.0659666e-002
  9.3140426e-002
  9.9598300e-002
  7.2277815e-002
  2.3726654e-002
 -4.2240688e-002
 -8.5655665e-002
 -9.7584328e-002
 -5.9623409e-002
 -4.9991706e-003
  4.8537602e-002
  6.2892150e-002
  4.8136077e-002
  8.8534694e-003
 -1.7111866e-002
 -3.1315841e-002
 -2.1595570e-002
 -1.0269197e-002
  6.9629521e-003
  1.3353904e-002
  2.4630087e-002
  3.0017225e-002
  4.2330683e-002
  4.3217386e-002
  4.0791501e-002
  2.2722840e-002
  7.9834968e-003
 -1.0469960e-002
 -1.3263910e-002
 -1.4518678e-002
 -5.5010779e-003
 -6.4881621e-003
 -1.2460858e-002
 -2.5711210e-002
 -7.2744835e-003
  2.5700823e-002
  5.8207682e-002
  5.2485939e-002
  2.3509161e-002
 -1.6476116e-002
 -2.8622272e-002
 -2.0759058e-002
  1.0827638e-002
  3.3530576e-002
  4.2799130e-002
  1.8021642e-002
 -2.0374263e-002
 -6.8925424e-002
 -9.4505963e-002
 -1.0011059e-001
 -7.4781008e-002
 -4.3963903e-002
 -9.7505593e-003
  1.9773401e-003
  4.9553231e-003
 -5.8858734e-003
 -7.5588976e-003
 -8.6296331e-003
  3.4830618e-003
  7.0800638e-003
  1.0375921e-002
 -1.4858199e-003
 -9.7505593e-003
 -2.1327886e-002
 -1.8902001e-002
 -1.7814536e-002
 -8.1779165e-003
 -8.2113770e-003
 -6.8060367e-003
 -1.4635790e-002
 -1.4317915e-002
 -1.7597043e-002
 -9.3992242e-003
 -6.6889250e-003
  3.2104618e-004
 -3.9117049e-003
 -6.2037480e-003
 -1.7563582e-002
 -2.0039658e-002
 -2.5292954e-002
 -1.9052574e-002
 -1.5873828e-002
 -5.7687618e-003
 -5.6349198e-003
 -1.6865828e-003
 -7.1239113e-003
 -5.0326311e-003
 -7.6090883e-003
 -1.5025502e-003
 -1.1679453e-003
  6.1097098e-003
  3.9013179e-003
  4.8549416e-003
 -3.3930675e-003
 -6.3208597e-003
 -1.5271539e-002
 -1.4987125e-002
 -1.8801620e-002
 -1.3347561e-002
 -1.3598515e-002
 -7.3414045e-003
 -7.2744835e-003
  2.5127078e-003
  7.1804452e-003
  1.6867255e-002
  1.2249708e-002
  4.5872578e-003
 -1.4635790e-002
 -2.3737041e-002
 -3.2436767e-002
 -2.6798675e-002
 -2.3519548e-002
 -9.8174802e-003
  4.7210997e-003
  3.1673519e-002
  4.9809101e-002
  7.1692257e-002
  8.4407240e-002
  9.2186803e-002
  7.0621521e-002
  2.9900113e-002
 -3.1332571e-002
 -7.7357465e-002
 -1.0253648e-001
 -8.7027545e-002
 -5.6093328e-002
 -2.0089849e-002
 -1.1808379e-002
 -2.1712682e-002
 -5.2881122e-002
 -7.1869946e-002
 -7.9682969e-002
 -6.3337523e-002
 -4.4817146e-002
 -1.9688323e-002
 -8.5794423e-003
  8.3968367e-004
 -4.0790074e-003
 -8.2950282e-003
 -2.3469357e-002
 -3.4812461e-002
 -5.4119160e-002
 -6.2952727e-002
 -7.0615178e-002
 -6.3705588e-002
 -6.0125317e-002
 -5.2964773e-002
 -6.1229513e-002
 -7.3292017e-002
 -8.6826782e-002
 -6.4893436e-002
 -2.6832136e-002
  9.1880742e-003
  3.2321082e-003
 -2.7852681e-002
 -7.2271472e-002
 -8.9721114e-002
 -8.3012287e-002
 -4.9384502e-002
 -2.3887613e-002
 -1.2762003e-002
 -3.7388918e-002
 -7.3425859e-002
 -1.1354498e-001
 -1.2748127e-001
 -1.2028727e-001
 -8.4116483e-002
 -4.8497799e-002
 -1.6526307e-002
 -1.1373393e-002
 -1.9270067e-002
 -4.2458182e-002
 -5.5022593e-002
 -6.4525370e-002
 -5.8402102e-002
 -5.5357198e-002
 -4.7728208e-002
 -4.9384502e-002
 -4.4967718e-002
 -4.7058998e-002
 -4.0534204e-002
 -3.8325812e-002
 -2.8404779e-002
 -2.6229847e-002
 -2.1076933e-002
 -2.6932517e-002
 -2.7752299e-002
 -3.5799545e-002
 -3.6318183e-002
 -3.9982106e-002
 -3.4611698e-002
 -3.5481671e-002
 -3.0345487e-002
 -3.3055786e-002
 -2.9391863e-002
 -3.2001781e-002
 -2.7534806e-002
 -2.8438239e-002
 -2.0725598e-002
 -2.0993282e-002
 -1.7730884e-002
 -2.4607014e-002
 -2.7735569e-002
 -3.6786630e-002
 -3.4528047e-002
 -3.2403306e-002
 -1.8333173e-002
 -1.0587071e-002
  3.0431594e-004
 -1.6363921e-003
 -4.8987892e-003
 -2.2850338e-002
 -3.7221616e-002
 -5.6377743e-002
 -6.1447006e-002
 -5.7883464e-002
 -3.2888483e-002
 -8.3954097e-003
  1.6298427e-002
  1.7787418e-002
  9.6732512e-003
 -9.2319218e-003
 -1.5673065e-002
 -1.6643419e-002
  4.8382114e-003
  3.3078859e-002
  7.0119614e-002
  8.6230837e-002
  9.0028602e-002
  8.3604189e-002
  9.2588329e-002
  9.9648490e-002
  1.0416566e-001
  8.0927350e-002
  4.3819674e-002
 -1.4740059e-004
 -1.2310286e-002
  6.2602819e-003
  5.7873077e-002
  1.0538696e-001
  1.3787709e-001
  1.3223900e-001
  1.0550408e-001
  5.9529371e-002
  2.7574610e-002
  1.2216248e-002
  2.8411122e-002
  5.4527029e-002
  8.7418684e-002
  1.0090326e-001
  1.0580522e-001
  9.4261353e-002
  8.5795850e-002
  7.3515853e-002
  7.3147788e-002
  6.9902121e-002
  7.4067951e-002
  6.8178906e-002
  6.3226755e-002
  4.5944415e-002
  3.5538205e-002
  3.7947360e-002
  7.0956126e-002
  1.0040135e-001
  1.1422053e-001
  8.9944950e-002
  5.0444850e-002
  4.5705275e-003
 -1.3782547e-002
 -9.4828754e-003
  2.2204202e-002
  5.0980218e-002
  7.0638252e-002
  5.9529371e-002
  3.5186870e-002
 -6.8276832e-004
 -1.8717969e-002
 -2.2599385e-002
 -1.7200433e-003
  2.0782132e-002
  4.5492698e-002
  5.0210627e-002
  4.8018965e-002
  3.2443110e-002
  2.3860496e-002
  1.5947092e-002
  2.0849053e-002
  2.0982895e-002
  2.5566981e-002
  2.0564638e-002
  2.0832322e-002
  1.7519735e-002
  2.4395864e-002
  2.6721367e-002
  3.3547306e-002
  2.8779187e-002
  2.4496245e-002
  1.3203332e-002
  1.0911289e-002
  5.9758678e-003
  1.1312815e-002
  1.2383550e-002
  1.9426982e-002
  1.7887800e-002
  1.9142568e-002
  1.1480117e-002
  1.0827638e-002
  5.9089469e-003
  9.4557581e-003
  7.6823525e-003
  1.1429927e-002
  8.2511807e-003
  1.1346275e-002
  7.6488920e-003
  1.0794177e-002
  9.3219162e-003
  1.3989654e-002
  1.1245894e-002
  1.2801806e-002
  5.0891650e-003
  2.1279123e-003
 -7.4083254e-003
 -9.1650008e-003
 -1.4418297e-002
 -9.7170988e-003
 -1.0101894e-002
 -4.0288166e-003
 -3.5603699e-003
  5.5074211e-003
  1.1312815e-002
  2.2421695e-002
  1.9962350e-002
  1.3906002e-002
 -4.7314868e-003
 -1.6108051e-002
 -2.6514261e-002
 -2.3134753e-002
 -2.0474644e-002
 -8.2615678e-003
  1.4419724e-003
  2.3743384e-002
  4.3284307e-002
  6.9115800e-002
  8.7970782e-002
  1.0349645e-001
  8.8372308e-002
  4.8119346e-002
 -1.8651048e-002
 -7.5466948e-002
 -1.0825822e-001
 -9.0239752e-002
 -4.2575293e-002
  1.9979080e-002
  5.6651770e-002
  6.6154547e-002
  4.1644743e-002
  1.1731071e-002
 -1.9705053e-002
 -2.9877040e-002
 -3.1232189e-002
 -1.6392465e-002
 -1.9375364e-003
  1.9176028e-002
  3.0887198e-002
  4.3685832e-002
  4.3618911e-002
  3.9503272e-002
  2.0648290e-002
  5.4237699e-003
 -1.1189360e-002
 -1.1992412e-002
 -1.0771104e-002
 -2.1048389e-003
 -3.7109420e-003
 -8.7802052e-003
 -2.3268594e-002
 -1.1490504e-002
  1.8222405e-002
  5.2385558e-002
  5.1582506e-002
  2.2237663e-002
 -2.5142382e-002
 -4.6038453e-002
 -3.8191970e-002
  1.8267679e-003
  3.8482727e-002
  5.8006919e-002
  3.8265234e-002
 -1.0006429e-003
 -5.3014964e-002
 -8.5237409e-002
 -9.7483946e-002
 -7.9013759e-002
 -5.1057526e-002
 -1.5204618e-002
  3.4663316e-003
  1.3203332e-002
  6.6618077e-003
  3.9515086e-003
  3.6632072e-005
  7.2808267e-003
  8.1006085e-003
  9.7234419e-003
 -7.1622880e-004
 -9.1482706e-003
 -2.1127124e-002
 -1.8734699e-002
 -1.4250994e-002
 -1.0173731e-003
  2.4123264e-003
  3.8678574e-003
 -6.7056553e-003
 -1.2009142e-002
 -1.8885271e-002
 -1.3297370e-002
 -9.1650008e-003
  5.7199980e-004
  1.5758143e-003
  3.1651872e-003
 -5.1497428e-003
 -8.0608049e-003
 -1.4803092e-002
 -1.2059333e-002
 -1.0704183e-002
 -1.9208062e-003
 -7.9988001e-004
  3.0815360e-003
 -2.1215691e-003
 -2.2052203e-003
 -5.6851105e-003
 -1.0341034e-003
 -7.3295904e-004
  4.7378300e-003
  1.0739071e-003
  4.7161835e-004
 -6.9231484e-003
 -9.8007500e-003
 -1.6827451e-002
 -1.5321730e-002
 -1.7362819e-002
 -1.1122439e-002
 -8.5459819e-003
 -4.9873566e-004
  2.4457869e-003
  1.1429927e-002
  1.2701425e-002
  1.4257337e-002
  3.0313453e-003
 -6.2873992e-003
 -1.8584127e-002
 -1.9956007e-002
 -2.4088376e-002
 -2.0022928e-002
 -1.8517206e-002
 -2.9078904e-003
  1.8724312e-002
  4.9809101e-002
  7.2177434e-002
  9.4127511e-002
  9.5248437e-002
  7.6661139e-002
  2.7541149e-002
 -2.9358402e-002
 -8.2142315e-002
 -9.8286998e-002
 -8.0435830e-002
 -2.7534806e-002
  2.4011068e-002
  5.8994003e-002
  5.6317165e-002
  3.4919186e-002
 -7.8314977e-004
 -2.3720311e-002
 -3.6903741e-002
 -2.9408593e-002
 -1.6543037e-002
  7.7994642e-003
  2.6202730e-002
  4.5342126e-002
  5.0009864e-002
  4.7868393e-002
  3.0017225e-002
  1.2985839e-002
 -7.1071811e-003
 -1.2544510e-002
 -1.3615245e-002
 -4.8485985e-003
 -3.0417324e-003
 -4.3634215e-003
 -2.8471700e-002
 -5.3132076e-002
 -6.3053109e-002
 -4.4750225e-002
 -3.1064887e-002
 -3.1834478e-002
 -5.6996761e-002
 -7.2254742e-002
 -6.7837958e-002
 -3.0931045e-002
  1.1513578e-002
  4.1377059e-002
  2.7474228e-002
 -2.0692137e-002
 -9.5292284e-002
 -1.5570519e-001
 -1.8776033e-001
 -1.7325521e-001
 -1.3243342e-001
 -7.4212180e-002
 -3.2503688e-002
 -1.1490504e-002
 -2.1913445e-002
 -4.1956274e-002
 -6.6181664e-002
 -7.4195450e-002
 -7.5400027e-002
 -6.5278231e-002
 -6.1881992e-002
 -5.9288805e-002
 -6.4675942e-002
 -6.1597578e-002
 -5.8719976e-002
 -4.7460524e-002
 -4.2090116e-002
 -3.5749355e-002
 -3.9647501e-002
 -4.2876438e-002
 -5.3148806e-002
 -5.4972402e-002
 -5.6344282e-002
 -4.8347227e-002
 -4.3846792e-002
 -3.6234532e-002
 -3.9814803e-002
 -4.3378345e-002
 -5.3232457e-002
 -5.4621067e-002
 -5.5457579e-002
 -4.5837690e-002
 -3.8660417e-002
 -2.8354588e-002
 -2.9927231e-002
 -3.0897585e-002
 -3.8074858e-002
 -4.0718236e-002
 -4.8196654e-002
 -4.7895510e-002
 -5.0120632e-002
 -4.2725865e-002
 -3.5866466e-002
 -2.2482273e-002
 -1.5806907e-002
 -9.1984613e-003
 -1.7496661e-002
 -2.9810119e-002
 -5.1492512e-002
 -6.5629566e-002
 -7.4580245e-002
 -6.3906351e-002
 -4.5887881e-002
 -1.7262438e-002
 -9.6718242e-004
  2.6967405e-003
 -1.3364291e-002
 -3.0161454e-002
 -4.7878780e-002
 -4.5653658e-002
 -2.9693007e-002
  6.2602819e-003
  3.8231774e-002
  5.7187137e-002
  5.1532316e-002
  4.6078257e-002
  3.9570193e-002
  3.9402891e-002
  2.4981422e-002
 -2.7405880e-003
 -4.8782213e-002
 -8.4400897e-002
 -1.0196765e-001
 -8.3748418e-002
 -4.7159379e-002
 -2.0211876e-003
  2.4763929e-002
  3.5303981e-002
  2.1066546e-002
  2.5127078e-003
 -1.5371920e-002
 -1.4117152e-002
 -2.1048389e-003
  2.2990524e-002
  3.9386160e-002
  4.9190082e-002
  4.2464525e-002
  3.5303981e-002
  2.7122893e-002
  3.2811175e-002
  4.0791501e-002
  5.6885993e-002
  6.4163648e-002
  6.6087626e-002
  5.2117874e-002
  3.5270521e-002
  2.5550250e-002
  5.6768881e-002
  1.0729421e-001
  1.5059208e-001
  1.4878521e-001
  1.0774593e-001
  4.1443980e-002
 -8.0440746e-003
 -2.8572081e-002
 -7.0904508e-003
  3.2242347e-002
  7.4302174e-002
  8.9777648e-002
  8.1747132e-002
  4.8972589e-002
  1.9627745e-002
  1.9940703e-003
  1.2617774e-002
  3.7612755e-002
  7.2930295e-002
  9.2303914e-002
  9.8276611e-002
  8.4089366e-002
  6.7091440e-002
  4.7751281e-002
  4.1828776e-002
  3.8850793e-002
  4.4472154e-002
  4.5258475e-002
  4.7667630e-002
  4.3936786e-002
  4.6195369e-002
  4.6329211e-002
  5.3305721e-002
  5.4727792e-002
  5.5480653e-002
  4.6245559e-002
  3.8281964e-002
  2.6520605e-002
  2.4814120e-002
  2.4797390e-002
  3.3112320e-002
  3.7211229e-002
  4.3133734e-002
  3.9553463e-002
  3.7629485e-002
  2.9849923e-002
  2.8227089e-002
  2.5466599e-002
  2.9799732e-002
  3.1121421e-002
  3.6675861e-002
  3.4584581e-002
  3.3630957e-002
  2.5316027e-002
  1.8021642e-002
  4.3864949e-003
 -2.5900159e-003
 -8.9140472e-003
 -3.9451654e-003
  1.6929260e-003
  1.2601044e-002
  1.8406437e-002
  2.8595154e-002
  3.2928287e-002
  3.7495643e-002
  2.9849923e-002
  1.8188944e-002
 -3.3143324e-004
 -1.1189360e-002
 -2.0608486e-002
 -1.7379549e-002
 -1.2092793e-002
  3.6838247e-003
  2.4061259e-002
  5.5363541e-002
  8.1328876e-002
  1.0841514e-001
  1.2042745e-001
  1.1211252e-001
  6.8111985e-002
  5.2731977e-003
 -6.1764880e-002
 -9.6814736e-002
 -9.3201004e-002
 -4.6490170e-002
  1.1747801e-002
  6.0382613e-002
  7.2210894e-002
  5.8492096e-002
  2.4144910e-002
 -4.0288166e-003
 -2.2950720e-002
 -2.2683036e-002
 -1.6057860e-002
  1.0571768e-003
  1.5043659e-002
  3.2024854e-002
  4.1561092e-002
  4.9056240e-002
  4.3301037e-002
  3.2961748e-002
  1.2818537e-002
 -1.1010244e-003
 -1.1590886e-002
 -9.2821125e-003
 -5.4676174e-003
  1.7263865e-003
 -4.0455469e-003
 -1.4200804e-002
 -1.6660149e-002
  9.6732512e-003
  3.9921528e-002
  5.5597764e-002
  3.3982292e-002
 -2.7405880e-003
 -3.4544777e-002
 -3.2905214e-002
 -6.7223855e-003
  3.2610412e-002
  5.1733079e-002
  4.5877494e-002
  7.5317803e-003
 -3.8995022e-002
 -8.0904277e-002
 -9.5091522e-002
 -8.7746946e-002
 -5.6762538e-002
 -2.4657205e-002
  3.9682388e-003
  1.3855812e-002
  1.4591942e-002
  5.7416445e-003
  3.8678574e-003
  2.0777215e-003
  6.3941239e-003
  4.4199554e-003
  1.1575583e-003
 -9.6334476e-003
 -1.5087506e-002
 -2.0190230e-002
 -1.4518678e-002
 -8.8136657e-003
 -3.8162397e-004
 -7.6641952e-004
 -1.2850570e-003
 -8.2782980e-003
 -9.7338290e-003
 -1.1490504e-002
 -6.0197154e-003
 -3.4432582e-003
  1.7765772e-003
 -7.4968928e-004
 -2.2219505e-003
 -8.8136657e-003
 -1.0988597e-002
 -1.4401566e-002
 -1.0687453e-002
 -9.2988427e-003
 -3.4432582e-003
 -3.5603699e-003
 -2.3223320e-003
 -5.6851105e-003
 -3.9786259e-003
 -4.9489799e-003
 -3.3143324e-004
  2.8758570e-004
  4.3530344e-003
  3.2990292e-003
  4.1857320e-003
 -1.5192804e-003
 -4.5307239e-003
 -1.2477589e-002
 -1.5054046e-002
 -1.8333173e-002
 -1.4619060e-002
 -1.3431212e-002
 -7.6927395e-003
 -6.9566089e-003
 -1.9542667e-003
  1.7096562e-003
  9.3888371e-003
  9.7903629e-003
  7.3644779e-003
 -6.5885436e-003
 -1.7295898e-002
 -2.5594098e-002
 -2.4071646e-002
 -2.2599385e-002
 -1.3782547e-002
 -4.2797703e-003
  1.6883985e-002
  3.8181583e-002
  6.0834330e-002
  7.7731874e-002
  9.3408110e-002
  8.8874215e-002
  6.3176564e-002
  9.7234419e-003
 -4.7778398e-002
 -9.1059533e-002
 -9.3719642e-002
 -6.1212782e-002
 -3.4097977e-003
  4.2631827e-002
  6.2808498e-002
  4.8437221e-002
  1.9744857e-002
 -1.3196989e-002
 -2.9525705e-002
 -3.3373660e-002
 -2.0825979e-002
 -4.2965005e-003
  1.8523549e-002
  3.5053028e-002
  4.8637984e-002
  4.7751281e-002
  3.9620384e-002
  2.0782132e-002
  4.9553231e-003
 -9.4159544e-003
 -1.0921676e-002
 -9.1315403e-003
 -1.2181360e-003
 -1.9759131e-004
 -5.0326311e-003
 -2.0424453e-002
 -1.4669250e-002
  1.3454286e-002
  5.0428120e-002
  5.9746864e-002
  3.6291066e-002
 -9.8174802e-003
 -4.1119762e-002
 -4.5703848e-002
 -1.6108051e-002
  2.1668834e-002
  4.9474496e-002
  4.3970246e-002
  1.2115866e-002
 -3.8744068e-002
 -7.8244168e-002
 -9.7969123e-002
 -8.6743131e-002
 -5.8184609e-002
 -2.0089849e-002
  3.8511272e-003
  1.2567583e-002
 -3.9835421e-004
 -2.1478459e-002
 -4.8079543e-002
 -6.4926896e-002
 -7.6102697e-002
 -7.5567330e-002
 -7.4061608e-002
 -6.5997631e-002
 -5.6862920e-002
 -4.1571479e-002
 -3.1198729e-002
 -2.3051101e-002
 -2.8371318e-002
 -3.7556221e-002
 -5.3700904e-002
 -6.6984716e-002
 -7.9984113e-002
 -8.0837356e-002
 -7.6738447e-002
 -6.4073654e-002
 -5.5942756e-002
 -4.9769297e-002
 -5.4253002e-002
 -5.9757251e-002
 -7.0882862e-002
 -7.5483678e-002
 -7.7675340e-002
 -7.2221281e-002
 -6.7637195e-002
 -5.8736707e-002
 -5.5507770e-002
 -5.1425591e-002
 -5.1275019e-002
 -4.6490170e-002
 -4.3378345e-002
 -3.8442924e-002
 -4.0366901e-002
 -4.3043740e-002
 -5.3600522e-002
 -6.0945099e-002
 -6.5010547e-002
 -5.6829459e-002
 -4.5469625e-002
 -2.8421509e-002
 -1.9738513e-002
 -2.0106579e-002
 -3.7221616e-002
 -5.7916925e-002
 -7.9599318e-002
 -8.5070107e-002
 -7.5935395e-002
 -4.8849134e-002
 -2.2264780e-002
 -4.6812961e-003
 -1.0787834e-002
 -2.7852681e-002
 -5.0572349e-002
 -5.9589949e-002
 -5.3449950e-002
 -2.6514261e-002
  6.6618077e-003
  3.8700220e-002
  4.8939128e-002
  4.6145178e-002
  3.4818804e-002
  2.7524419e-002
  1.7151669e-002
  1.9438796e-003
 -3.1115078e-002
 -6.7252400e-002
 -9.6798006e-002
 -9.9658878e-002
 -7.9816811e-002
 -4.0233059e-002
 -5.8524130e-003
  1.6900716e-002
  1.6014013e-002
  2.9811546e-003
 -1.7914917e-002
 -2.7869411e-002
 -2.7233662e-002
 -1.0921676e-002
  6.7287287e-003
  2.2639188e-002
  2.3810305e-002
  1.5194231e-002
 -3.5938304e-003
 -1.6526307e-002
 -2.3720311e-002
 -1.6141512e-002
 -2.9078904e-003
  1.3989654e-002
  1.8372977e-002
  1.2684695e-002
 -9.1482706e-003
 -1.7764345e-002
  8.0002271e-003
  6.3728662e-002
  1.0607290e-001
  1.1316653e-001
  7.6627678e-002
  2.9197443e-002
 -5.7018408e-003
 -4.1124678e-003
  2.6570795e-002
  7.5506752e-002
  1.0978702e-001
  1.1698102e-001
  8.6966967e-002
  3.9954988e-002
 -5.7353013e-003
 -2.1896715e-002
 -9.8509407e-003
  2.6537335e-002
  6.3494438e-002
  9.0714541e-002
  9.5148055e-002
  8.6900046e-002
  6.9751549e-002
  6.1102014e-002
  5.7839617e-002
  6.3176564e-002
  6.4799397e-002
  6.4966700e-002
  5.6735421e-002
  5.2101144e-002
  4.8186267e-002
  5.3372642e-002
  5.9964357e-002
  6.8413129e-002
  6.7559887e-002
  6.4029806e-002
  5.2954386e-002
  4.4204470e-002
  3.6441638e-002
  3.7729866e-002
  3.9704035e-002
  4.4522344e-002
  4.2782399e-002
  4.1343599e-002
  3.5738968e-002
  3.4367088e-002
  3.3564036e-002
  3.9419621e-002
  4.2715478e-002
  4.7717821e-002
  4.5392317e-002
  4.0088830e-002
  2.6520605e-002
  1.5712868e-002
  3.1317268e-003
 -1.0842941e-003
 -9.0026146e-004
  8.1675295e-003
  1.6566111e-002
  2.6436953e-002
  2.9749541e-002
  3.4852265e-002
  3.6006651e-002
  3.7462182e-002
  3.0301639e-002
  2.0698480e-002
  5.7583747e-003
 -3.7945933e-003
 -1.2711812e-002
 -1.2762003e-002
 -8.7802052e-003
  7.3812081e-003
  3.0502402e-002
  6.2908880e-002
  9.1182988e-002
  1.1805176e-001
  1.2889295e-001
  1.1483955e-001
  6.4230569e-002
 -2.8409695e-003
 -6.7269130e-002
 -9.7634518e-002
 -8.6207763e-002
 -3.3892298e-002
  2.6888670e-002
  7.2026862e-002
  7.8401084e-002
  5.6852532e-002
  1.9878699e-002
 -8.1611863e-003
 -2.2883799e-002
 -1.8182601e-002
 -7.6425488e-003
  9.0375020e-003
  2.2655919e-002
  3.6558749e-002
  4.3267576e-002
  4.7533788e-002
  4.0624198e-002
  2.9900113e-002
  1.2701425e-002
  5.2180908e-004
 -7.9771536e-003
 -5.4341569e-003
 -2.8242392e-003
  1.0739071e-003
 -6.3041295e-003
 -1.7212247e-002
 -1.5087506e-002
  1.5512106e-002
  4.7316295e-002
  5.8977273e-002
  3.2861366e-002
 -7.4752464e-003
 -3.6753169e-002
 -3.0847394e-002
 -9.6718242e-004
  3.6742782e-002
  5.1716348e-002
  3.7980820e-002
 -4.5474541e-003
 -5.1074256e-002
 -8.6860243e-002
 -9.2966781e-002
 -7.6771907e-002
 -4.2625484e-002
 -1.1440314e-002
  1.0643605e-002
  1.4307528e-002
  1.0961480e-002
  2.1446425e-003
  5.8873004e-004
  1.4921631e-003
  6.9964126e-003
  6.4275844e-003
  3.6838247e-003
 -6.4045109e-003
 -1.3146798e-002
 -1.8115680e-002
 -1.5656335e-002
 -1.2226635e-002
 -4.9991706e-003
 -3.6607513e-003
 -2.8409695e-003
 -6.2706690e-003
 -6.0364456e-003
 -6.4547017e-003
 -2.3390622e-003
 -1.9040760e-003
 -1.8086107e-004
 -3.4767187e-003
 -6.0866363e-003
 -1.1072248e-002
 -1.1122439e-002
 -1.2276826e-002
 -7.5254371e-003
 -4.7482170e-003
 -4.8200542e-004
 -1.7200433e-003
 -2.6234763e-003
 -7.7596605e-003
 -8.3954097e-003
 -9.0813496e-003
 -4.5474541e-003
 -1.1679453e-003
  4.6709090e-003
  5.0055138e-003
  4.8549416e-003
 -1.7367735e-003
 -7.2577533e-003
 -1.5104237e-002
 -1.7847996e-002
 -2.0307342e-002
 -1.5422111e-002
 -1.1858570e-002
 -5.8524130e-003
 -4.2295795e-003
  4.7161835e-004
  3.2990292e-003
  9.1546137e-003
  7.8663851e-003
  2.9644243e-003
 -9.9345919e-003
 -2.0457914e-002
 -2.8689193e-002
 -2.8120365e-002
 -2.6915787e-002
 -1.8801620e-002
 -6.2037480e-003
  1.8339516e-002
  4.2581636e-002
  6.6489152e-002
  8.3570728e-002
  9.5633232e-002
  8.4858957e-002
  4.9909482e-002
 -8.6630936e-003
 -6.5060738e-002
 -1.0022771e-001
 -9.1896045e-002
 -4.9601995e-002
  9.1044230e-003
  4.9892752e-002
  6.1603921e-002
  4.0172482e-002
  8.1507992e-003
 -2.2984180e-002
 -3.6385104e-002
 -3.5147066e-002
 -1.9521020e-002
 -4.1459283e-003
  8.2344504e-003
  6.3272029e-003
 -5.8356827e-003
 -3.0797203e-002
 -5.5758724e-002
 -7.6002316e-002
 -7.8177247e-002
 -6.6181664e-002
 -3.9948645e-002
 -1.5907288e-002
 -1.9877272e-003
 -1.1590886e-002
 -4.0768427e-002
 -7.8879917e-002
 -8.6073921e-002
 -6.0426461e-002
 -2.2582655e-002
 -1.0754374e-002
 -3.0562980e-002
 -7.0832671e-002
 -9.6998769e-002
 -9.7550867e-002
 -7.0130001e-002
 -3.9329626e-002
 -2.0859440e-002
 -3.3524233e-002
 -6.8406786e-002
 -1.1367882e-001
 -1.4367614e-001
 -1.4687162e-001
 -1.1774427e-001
 -7.6454032e-002
 -3.6401834e-002
 -1.7714154e-002
 -1.8500476e-002
 -3.7489300e-002
 -5.7783083e-002
 -7.4262371e-002
 -7.5316376e-002
 -7.0397685e-002
 -6.2032564e-002
 -6.0660684e-002
 -6.0342810e-002
 -6.3153490e-002
 -5.9322265e-002
 -5.3132076e-002
 -4.0099217e-002
 -2.9642816e-002
 -2.2030557e-002
 -2.5560638e-002
 -3.3239818e-002
 -4.6272677e-002
 -5.3383029e-002
 -5.6310822e-002
 -5.0957144e-002
 -4.6456709e-002
 -4.0751697e-002
 -4.0316711e-002
 -3.7974477e-002
 -3.8225430e-002
 -3.6351643e-002
 -3.7071044e-002
 -3.3423851e-002
 -3.2051971e-002
 -2.8137095e-002
 -2.9241291e-002
 -3.0429138e-002
 -3.5213987e-002
 -3.8275621e-002
 -4.4800415e-002
 -4.5820960e-002
 -4.3930443e-002
 -3.2804832e-002
 -1.9688323e-002
 -4.1124678e-003
  7.3930222e-004
 -4.0790074e-003
 -2.2683036e-002
 -4.4281778e-002
 -6.6248585e-002
 -7.5801553e-002
 -7.1334579e-002
 -4.5553276e-002
 -1.3715627e-002
  1.4039844e-002
  1.9042187e-002
  5.9925981e-003
 -1.7881457e-002
 -3.4210172e-002
 -3.9647501e-002
 -2.1612301e-002
  1.4039844e-002
  5.7070026e-002
  7.6845171e-002
  7.2227625e-002
  5.5664685e-002
  5.3088228e-002
  6.2005447e-002
  7.3448932e-002
  6.4883048e-002
  3.5136679e-002
 -1.0352848e-002
 -4.0534204e-002
 -3.8777528e-002
  2.1446425e-003
  6.0098199e-002
  1.1493993e-001
  1.3886418e-001
  1.3230592e-001
  9.9966365e-002
  6.6689915e-002
  4.5174824e-002
  4.7483597e-002
  6.1403158e-002
  8.0960811e-002
  9.0246095e-002
  8.8188275e-002
  7.2110513e-002
  5.6802342e-002
  4.6412862e-002
  5.2017493e-002
  6.3059452e-002
  7.7681683e-002
  8.4072636e-002
  8.3336505e-002
  6.7710459e-002
  5.0260817e-002
  4.7868393e-002
  7.3599504e-002
  1.0445007e-001
  1.2067840e-001
  1.0276032e-001
  6.4096727e-002
  2.0230034e-002
 -3.0584626e-003
 -1.2683268e-003
  2.5500060e-002
  5.6099672e-002
  7.7815525e-002
  7.2361466e-002
  4.7701090e-002
  1.2768346e-002
 -1.0152085e-002
 -1.4819822e-002
  3.9180481e-003
  2.8544964e-002
  5.1114060e-002
  5.8140761e-002
  5.3556675e-002
  3.8683490e-002
  2.8478043e-002
  2.2338044e-002
  2.6035427e-002
  2.9582239e-002
  3.3380004e-002
  3.0636244e-002
  2.8879569e-002
  2.6420223e-002
  3.1171612e-002
  3.4634772e-002
  3.8616569e-002
  3.5303981e-002
  2.9983765e-002
  1.9560824e-002
  1.4073305e-002
  1.0810908e-002
  1.4876356e-002
  1.9109107e-002
  2.4881041e-002
  2.4161640e-002
  2.2605728e-002
  1.5829980e-002
  1.1580499e-002
  7.1804452e-003
  8.5523250e-003
  9.9074746e-003
  1.5461915e-002
  1.7318972e-002
  2.0246764e-002
  1.9393522e-002
  1.9092377e-002
  1.3253523e-002
  8.0002271e-003
 -2.7405880e-003
 -1.0269197e-002
 -1.7948378e-002
 -1.8450285e-002
 -1.6158242e-002
 -7.3414045e-003
 -1.6531223e-003
  5.9256771e-003
  1.0225349e-002
  1.6917446e-002
  1.8824693e-002
  1.8289326e-002
  7.1971755e-003
 -5.0995521e-003
 -1.8149141e-002
 -2.3402436e-002
 -2.4489902e-002
 -1.6994754e-002
 -7.2242928e-003
  1.3236793e-002
  3.7110847e-002
  6.5619179e-002
  9.2036231e-002
  1.1283192e-001
  1.0595579e-001
  6.8647353e-002
  2.3955961e-003
 -6.3103300e-002
 -1.0399201e-001
 -9.7902202e-002
 -5.5089514e-002
  7.3142872e-003
  5.2000762e-002
  6.6756836e-002
  4.8688175e-002
  1.8188944e-002
 -1.2109523e-002
 -2.5928703e-002
 -2.8170555e-002
 -1.7228977e-002
 -3.7276723e-003
  1.4742514e-002
  3.0100876e-002
  4.3652372e-002
  4.4873680e-002
  3.9218858e-002
  2.3843766e-002
  9.2884557e-003
 -3.8280537e-003
 -5.9026037e-003
 -4.6645658e-003
  1.5758143e-003
  1.4587026e-003
 -5.1664731e-003
 -2.2649576e-002
 -2.3737041e-002
  3.5450666e-004
  3.9302509e-002
  5.6501197e-002
  4.1427250e-002
  6.2219053e-004
 -3.1115078e-002
 -3.7171425e-002
 -9.0311589e-003
  2.7959405e-002
  5.3205340e-002
  4.5208284e-002
  9.7569024e-003
 -4.2039926e-002
 -8.1105040e-002
 -9.8939477e-002
 -8.7094466e-002
 -5.8586134e-002
 -2.2231319e-002
  1.9773401e-003
  1.3036030e-002
  7.2306360e-003
  3.3777642e-004
 -4.4638029e-003
  1.1910187e-003
  6.9127614e-003
  1.2283169e-002
  6.6283473e-003
 -1.7367735e-003
 -1.3196989e-002
 -1.7663964e-002
 -1.7530122e-002
 -8.6630936e-003
 -2.8744300e-003
  1.3248607e-003
 -2.8576997e-003
 -7.1741021e-003
 -1.3196989e-002
 -1.1406853e-002
 -8.2782980e-003
 -2.3105179e-004
  2.4625171e-003
  3.0313453e-003
 -3.3094162e-003
 -8.0440746e-003
 -1.4133883e-002
 -1.3079877e-002
 -1.1189360e-002
 -4.8485985e-003
 -2.1717598e-003
  6.5565101e-004
 -3.2424953e-003
 -5.4174267e-003
 -1.0620532e-002
 -1.0403039e-002
 -9.0980798e-003
 -2.8242392e-003
  1.0355304e-004
  4.6876392e-003
  4.1355413e-003
  4.5370671e-003
  1.1240978e-003
 -1.1177546e-003
 -6.5383529e-003
 -7.8767722e-003
 -1.1691267e-002
 -1.1390123e-002
 -1.3581785e-002
 -1.2711812e-002
 -1.3665436e-002
 -9.0646193e-003
 -5.5178081e-003
  4.0518901e-003
  1.0409382e-002
  1.4324258e-002
  6.6283473e-003
 -5.0326311e-003
 -2.1043472e-002
 -2.7233662e-002
 -2.7534806e-002
 -2.0457914e-002
 -1.4468487e-002
 -2.7907788e-003
  1.1881643e-002
  3.4835535e-002
  5.3489754e-002
  7.3766807e-002
  8.8790564e-002
  9.3207347e-002
  6.8513511e-002
  2.1049816e-002
 -4.1504558e-002
 -8.7680025e-002
 -1.0034482e-001
 -6.7369511e-002
 -1.2745272e-002
  4.0523817e-002
  6.1787954e-002
  5.2887465e-002
  2.0347145e-002
 -1.2176444e-002
 -3.6234532e-002
 -3.8894640e-002
 -2.9241291e-002
 -6.9566089e-003
  1.5445185e-002
  3.7411992e-002
  4.9089700e-002
  5.4058582e-002
  4.4204470e-002
  2.6102348e-002
 -2.2888715e-003
 -2.8120365e-002
 -5.0187553e-002
 -6.1112401e-002
 -7.0866132e-002
 -7.4178720e-002
 -7.9666239e-002
 -8.2326347e-002
 -7.1836486e-002
 -2.8120365e-002
  2.4328943e-002
  5.7605393e-002
  4.1209757e-002
 -1.1707998e-002
 -7.4145259e-002
 -1.0738825e-001
 -1.0442700e-001
 -6.9159647e-002
 -3.4929573e-002
 -2.1428268e-002
 -4.3461996e-002
 -8.4534739e-002
 -1.2883642e-001
 -1.4919712e-001
 -1.4258868e-001
 -1.0872667e-001
 -6.9778666e-002
 -3.8526575e-002
 -3.0947775e-002
 -3.7589681e-002
 -5.5139705e-002
 -6.4491910e-002
 -6.7486623e-002
 -6.1631038e-002
 -5.9489567e-002
 -5.7850004e-002
 -6.2952727e-002
 -6.4475179e-002
 -6.5512454e-002
 -5.7615780e-002
 -4.7928971e-002
 -3.5648973e-002
 -3.3139437e-002
 -3.3591154e-002
 -4.1203413e-002
 -4.7477254e-002
 -5.4353383e-002
 -5.1525972e-002
 -4.6289407e-002
 -3.7188155e-002
 -3.6803360e-002
 -3.9430008e-002
 -4.6456709e-002
 -4.7393603e-002
 -4.7293221e-002
 -4.0718236e-002
 -3.7991207e-002
 -3.4277093e-002
 -3.5213987e-002
 -3.3156167e-002
 -3.3156167e-002
 -2.9157639e-002
 -3.0111263e-002
 -2.9826849e-002
 -3.3925758e-002
 -3.6167611e-002
 -4.1956274e-002
 -4.0132678e-002
 -3.5749355e-002
 -2.3435897e-002
 -1.1942221e-002
 -1.0842941e-003
 -3.6440211e-003
 -1.6191702e-002
 -4.2960089e-002
 -6.5763408e-002
 -8.0402369e-002
 -7.4580245e-002
 -5.2931313e-002
 -1.6576498e-002
  9.9911258e-003
  1.8372977e-002
  1.5590841e-003
 -2.1060203e-002
 -4.0868809e-002
 -4.1186683e-002
 -2.5560638e-002
  1.0024586e-002
  4.5091173e-002
  6.4665555e-002
  5.6149862e-002
  4.2832590e-002
  3.4668232e-002
  3.9469811e-002
  3.8114662e-002
  2.3040714e-002
 -1.5706525e-002
 -6.0175507e-002
 -9.3953865e-002
 -9.0256482e-002
 -5.6059868e-002
 -3.1086533e-003
  3.8633299e-002
  5.8492096e-002
  4.6279020e-002
  2.1183657e-002
 -4.8820590e-003
 -8.1611863e-003
  9.9242048e-003
  4.6529973e-002
  7.7347078e-002
  9.5951107e-002
  9.2236993e-002
  8.0057378e-002
  6.4297490e-002
  5.9378799e-002
  6.2239670e-002
  7.6477106e-002
  8.6414869e-002
  9.0764732e-002
  7.8133400e-002
  5.6785612e-002
  2.9314555e-002
  2.7942675e-002
  5.6400816e-002
  1.0098691e-001
  1.2332178e-001
  1.1167753e-001
  6.8195636e-002
  2.5533520e-002
 -1.0675639e-003
  5.9424074e-003
  3.3313083e-002
  7.0554600e-002
  9.2404296e-002
  9.2956394e-002
  6.5736291e-002
  3.2175426e-002
  2.5796288e-003
 -3.4432582e-003
  8.9036601e-003
  3.7077387e-002
  5.9596292e-002
  7.2796453e-002
  6.6823756e-002
  5.4209154e-002
  3.8750411e-002
  3.2894827e-002
  3.0586053e-002
  3.5605126e-002
  3.6307796e-002
  3.8265234e-002
  3.5287251e-002
  3.6525289e-002
  3.6943545e-002
  4.3635642e-002
  4.6078257e-002
  4.8453951e-002
  4.2113190e-002
  3.5237060e-002
  2.5014883e-002
  2.1735755e-002
  1.9795047e-002
  2.5533520e-002
  2.9281094e-002
  3.4233246e-002
  3.2861366e-002
  3.1907742e-002
  2.4613357e-002
  2.0882513e-002
  1.6047473e-002
  1.7084748e-002
  1.7068018e-002
  2.1919788e-002
  2.4345673e-002
  3.0853737e-002
  3.1071230e-002
  3.0100876e-002
  2.1384420e-002
  1.2199518e-002
 -2.7405880e-003
 -1.2477589e-002
 -2.0641947e-002
 -1.7413010e-002
 -1.0352848e-002
  2.5963590e-003
  1.0911289e-002
  2.2287853e-002
  2.8595154e-002
  3.4233246e-002
  2.8327471e-002
  1.6164585e-002
 -3.5603699e-003
 -1.5572683e-002
 -2.3385706e-002
 -2.0073118e-002
 -1.4368106e-002
 -1.3352477e-003
  1.4441370e-002
  4.0222672e-002
  6.1971986e-002
  8.5461246e-002
  1.0189034e-001
  1.0831476e-001
  8.5728929e-002
  3.8934444e-002
 -2.6949248e-002
 -7.7909563e-002
 -9.7985853e-002
 -7.2137630e-002
 -2.0474644e-002
  3.5354172e-002
  6.2423703e-002
  6.0750679e-002
  3.3346543e-002
  4.7712904e-003
 -1.8065489e-002
 -2.3352246e-002
 -2.0357532e-002
 -6.4547017e-003
  6.8458404e-003
  2.3843766e-002
  3.6006651e-002
  4.6931499e-002
  4.5927685e-002
  3.9118476e-002
  2.0932704e-002
  4.8214812e-003
 -9.0646193e-003
 -1.0202276e-002
 -6.8060367e-003
  2.9142336e-003
  3.5499828e-003
 -3.6942118e-003
 -1.8249522e-002
 -9.8844012e-003
  1.8908345e-002
  5.1197711e-002
  5.2720163e-002
  2.5784474e-002
 -1.5790176e-002
 -3.5833006e-002
 -2.7116550e-002
  8.6694367e-003
  4.0289593e-002
  5.3255531e-002
  3.1723710e-002
 -1.0001513e-002
 -5.8586134e-002
 -8.7495992e-002
 -9.3970595e-002
 -7.2037249e-002
 -4.0885539e-002
 -8.0775351e-003
  8.6527065e-003
  1.3153141e-002
  3.8176667e-003
 -1.1846756e-003
 -3.4097977e-003
  4.0016993e-003
  7.9333061e-003
  1.0459573e-002
  3.5667130e-003
 -3.3094162e-003
 -1.4184073e-002
 -1.6492847e-002
 -1.4903474e-002
 -6.5216226e-003
 -3.3261465e-003
  4.2142763e-004
 -3.8113235e-003
 -6.7893065e-003
 -1.2076063e-002
 -9.9513222e-003
 -7.3414045e-003
  4.0469739e-004
  1.9271494e-003
  3.5667130e-003
 -2.1048389e-003
 -5.8356827e-003
 -1.2343747e-002
 -1.2226635e-002
 -1.2996226e-002
 -7.6425488e-003
 -6.2706690e-003
 -3.8949747e-003
 -6.5550831e-003
 -6.0364456e-003
 -8.1109956e-003
 -4.4972634e-003
 -4.0120864e-003
 -6.9949856e-004
 -1.3519780e-003
  8.8987439e-004
 -8.1661025e-004
  1.5758143e-003
 -1.1394010e-004
  1.8100377e-003
  5.3362314e-005
  1.0069861e-003
 -2.7238578e-003
 -3.5269094e-003
 -9.4996056e-003
 -1.1139169e-002
 -1.3933120e-002
 -1.1641077e-002
 -1.2193175e-002
 -7.5588976e-003
 -5.0828219e-003
  3.2990292e-003
  8.2344504e-003
  1.2149327e-002
  4.9553231e-003
 -5.2501243e-003
 -1.9972737e-002
 -2.3753771e-002
 -2.2599385e-002
 -1.4819822e-002
 -1.0938406e-002
 -1.7200433e-003
  1.0091507e-002
  3.1740440e-002
  4.9374115e-002
  6.9818470e-002
  8.4875687e-002
  9.0982225e-002
  6.8195636e-002
  2.3827036e-002
 -3.6803360e-002
 -8.2175775e-002
 -9.7065690e-002
 -6.7285860e-002
 -1.5974209e-002
  3.6926815e-002
  5.9495911e-002
  5.2904195e-002
  2.2137281e-002
 -8.2113770e-003
 -3.1650445e-002
 -3.4444396e-002
 -2.6597913e-002
 -6.2539388e-003
  1.3755430e-002
  3.5136679e-002
  4.6128448e-002
  5.1231171e-002
  4.0724580e-002
  2.5265836e-002
  4.5370671e-003
 -7.4585162e-003
 -1.3849468e-002
 -7.3915952e-003
 -1.8036945e-003
  4.9720533e-003
  2.8758570e-004
 -1.1707998e-002
 -2.3051101e-002
 -4.2797703e-003
  2.8862838e-002
  5.6216783e-002
  4.7266104e-002
  1.2216248e-002
 -3.0378947e-002
 -4.6172295e-002
 -3.3607884e-002
  4.9218626e-003
  3.7311610e-002
  4.8755096e-002
  2.4964692e-002
 -1.7847996e-002
 -6.8490437e-002
 -1.0103076e-001
 -1.1643931e-001
 -1.0959664e-001
 -9.4907489e-002
 -7.2974142e-002
 -5.9338995e-002
 -4.9986790e-002
 -4.9401232e-002
 -4.1169953e-002
 -3.0964506e-002
 -1.7028214e-002
 -1.6208433e-002
 -2.4757586e-002
 -4.7711477e-002
 -6.9109456e-002
 -8.5789507e-002
 -8.5137028e-002
 -7.5935395e-002
 -5.9506298e-002
 -5.2897852e-002
 -5.0923684e-002
 -5.8719976e-002
 -6.3772509e-002
 -6.8155833e-002
 -6.2183136e-002
 -5.7097143e-002
 -4.9300850e-002
 -5.1040795e-002
 -5.3985318e-002
 -6.1831801e-002
 -6.3287332e-002
 -6.4709403e-002
 -5.8218069e-002
 -5.4872021e-002
 -4.9668916e-002
 -5.0605809e-002
 -4.9083357e-002
 -5.2211912e-002
 -5.0187553e-002
 -5.0070441e-002
 -4.5871151e-002
 -4.7125919e-002
 -4.4833876e-002
 -4.3813331e-002
 -3.6502216e-002
 -3.6234532e-002
 -3.7221616e-002
 -4.4900797e-002
 -4.7376873e-002
 -4.8464338e-002
 -3.8978291e-002
 -3.0211645e-002
 -1.7730884e-002
 -1.4033501e-002
 -1.5990939e-002
 -3.2838293e-002
 -5.1291749e-002
 -7.1351309e-002
 -7.6638065e-002
 -7.0866132e-002
 -4.9100087e-002
 -2.6798675e-002
 -6.2204783e-003
 -5.5178081e-003
 -1.6576498e-002
 -3.5013224e-002
 -4.3127391e-002
 -4.3712950e-002
 -2.7317313e-002
 -4.1459283e-003
  2.7457498e-002
  4.6329211e-002
  5.1682888e-002
  4.3953516e-002
  4.0624198e-002
  3.3229431e-002
  2.4027799e-002
 -3.0082719e-003
 -3.9078673e-002
 -7.9515667e-002
 -9.8738714e-002
 -9.3836753e-002
 -5.9154963e-002
 -1.8584127e-002
  1.6666492e-002
  2.7072702e-002
  1.9828508e-002
 -3.8447840e-003
 -2.3084562e-002
 -3.3942489e-002
 -2.3318785e-002
 -3.1588441e-003
  2.2237663e-002
  3.2409650e-002
  3.0050685e-002
  1.0375921e-002
 -7.8098512e-003
 -2.1194044e-002
 -1.7513391e-002
 -6.2706690e-003
  1.3805621e-002
  2.4479515e-002
  2.7005782e-002
  1.1145512e-002
 -8.3619492e-003
 -1.2025872e-002
  2.6068888e-002
  7.6058850e-002
  1.1293230e-001
  1.0672538e-001
  7.1173619e-002
  2.6537335e-002
  7.2808267e-003
  1.6398808e-002
  5.4108773e-002
  9.0145713e-002
  1.0940222e-001
  9.1835468e-002
  5.0879836e-002
 -1.2181360e-003
 -2.9877040e-002
 -2.8639002e-002
  8.2846412e-003
  5.5815258e-002
  9.9280425e-002
  1.1452168e-001
  1.0786304e-001
  7.9990457e-002
  5.4777983e-002
  3.7161038e-002
  3.8315425e-002
  4.4371772e-002
  5.6434276e-002
  5.9914167e-002
  6.2273131e-002
  5.8676129e-002
  6.0650297e-002
  6.1118744e-002
  6.6740105e-002
  6.4832858e-002
  6.1854875e-002
  5.0311008e-002
  4.1544361e-002
  3.1372375e-002
  3.1456026e-002
  3.2760985e-002
  4.1711664e-002
  4.6295750e-002
  5.1164250e-002
  4.6948229e-002
  4.2682018e-002
  3.2141966e-002
  2.8695536e-002
  2.5851395e-002
  3.1874282e-002
  3.6625670e-002
  4.5743652e-002
  4.5844034e-002
  4.3819674e-002
  3.1271993e-002
  1.9711396e-002
  5.0724348e-003
 -9.0026146e-004
 -5.0828219e-003
  1.4587026e-003
  7.2306360e-003
  1.8255865e-002
  2.4964692e-002
  3.4969377e-002
  3.8599839e-002
  4.2481255e-002
  3.3948832e-002
  2.2220932e-002
  4.5036066e-003
 -5.0326311e-003
 -1.2879114e-002
 -9.2821125e-003
 -4.9824404e-003
  9.1880742e-003
  2.7708452e-002
  5.5581034e-002
  7.9003372e-002
  1.0528658e-001
  1.1965786e-001
  1.1713159e-001
  7.8668768e-002
  1.7854339e-002
 -5.0873493e-002
 -9.0574356e-002
 -9.2598716e-002
 -4.9183739e-002
  8.4854041e-003
  5.8425175e-002
  7.3197979e-002
  6.1202395e-002
  2.7390577e-002
 -4.8200542e-004
 -2.0173500e-002
 -2.0457914e-002
 -1.4669250e-002
  1.9901831e-005
  1.1279354e-002
  2.8561694e-002
  4.0239403e-002
  5.0177166e-002
  4.5777113e-002
  3.5889540e-002
  1.5779789e-002
  2.3955961e-003
 -9.1650008e-003
 -9.0980798e-003
 -7.9771536e-003
 -1.7367735e-003
 -4.3634215e-003
 -1.1222821e-002
 -1.8015299e-002
  3.6169038e-003
  3.6173954e-002
  5.9362069e-002
  4.4388503e-002
  6.9294916e-003
 -3.2938674e-002
 -3.8493114e-002
 -1.4100422e-002
  2.9046871e-002
  5.4627410e-002
  5.3690517e-002
  1.6900716e-002
 -3.0830664e-002
 -7.5734632e-002
 -9.2113539e-002
 -8.4367437e-002
 -5.2797471e-002
 -2.1076933e-002
  7.8998456e-003
  1.8506819e-002
  2.0798862e-002
  1.1764531e-002
  4.8382114e-003
 -4.4470727e-003
 -3.6774816e-003
 -3.5771001e-003
  1.8434982e-003
  1.3583212e-003
  1.6761957e-003
 -5.4341569e-003
 -6.8060367e-003
 -1.2059333e-002
 -1.4769632e-002
 -2.3502818e-002
 -2.6614643e-002
 -2.9525705e-002
 -2.0357532e-002
 -1.0118625e-002
  6.4610448e-003
  1.5394994e-002
  2.0731941e-002
  1.2534123e-002
  2.6800102e-003
 -1.2293556e-002
 -1.7814536e-002
 -2.2632845e-002
 -1.9504290e-002
 -1.7630503e-002
 -9.0646193e-003
 -4.4303424e-003
  3.8009364e-003
  2.5461683e-003
 -2.4227134e-003
 -1.5489032e-002
 -2.0675407e-002
 -2.3569739e-002
 -1.2996226e-002
 -6.4930783e-004
  1.5712868e-002
  2.1668834e-002
  2.2254393e-002
  1.4842896e-002
  1.4424640e-002
  6.4443146e-003
 -4.8820590e-003
 -2.2298240e-002
 -2.9826849e-002
 -3.2520418e-002
 -2.0876170e-002
 -7.3246742e-003
  1.4407910e-002
  1.0041317e-002
 -3.3390391e-002
 -8.2225966e-002
 -6.8272944e-002
 -1.3498133e-002
  3.7713136e-002
  4.5107903e-002
  1.9226219e-002
 -2.8454969e-002
 -6.1078940e-002
 -6.5964171e-002
 -3.1449683e-002
  1.9493903e-002
  7.4519668e-002
  1.0013367e-001
  9.9364076e-002
  7.9706042e-002
  6.2875419e-002
  3.3831720e-002
 -7.2242928e-003
 -6.2986188e-002
 -1.0263686e-001
 -1.1655642e-001
 -8.8566727e-002
 -3.7188155e-002
  2.4546436e-002
  6.2540815e-002
  7.0772093e-002
  4.3334497e-002
  7.1637150e-003
 -3.0378947e-002
 -4.7828589e-002
 -5.1977689e-002
 -3.7807174e-002
 -1.6927833e-002
  1.9142568e-002
  4.8721635e-002
  6.4531713e-002
  5.0294278e-002
  2.0514448e-002
 -2.2130938e-002
 -5.3265918e-002
 -6.9561173e-002
 -5.6361012e-002
 -2.9274751e-002
  5.7249142e-003
  2.3174556e-002
  2.0046001e-002
 -4.4470727e-003
 -1.0570341e-002
  5.7199980e-004
  1.9510633e-002
  1.5411724e-002
 -4.7649473e-003
 -3.5883197e-002
 -5.1392131e-002
 -5.1040795e-002
 -2.3887613e-002
  1.0643605e-002
  4.0339784e-002
  3.6324526e-002
  8.0504178e-003
 -3.8894640e-002
 -7.4346022e-002
 -9.1193375e-002
 -7.7742261e-002
 -5.0806572e-002
 -1.5924018e-002
  3.0146151e-003
  1.2483932e-002
  1.1931834e-002
  1.3872542e-002
  4.7043695e-003
 -8.9307774e-003
 -2.8505160e-002
 -3.1098348e-002
 -2.3720311e-002
 -8.6463633e-003
 -8.3117585e-003
 -1.4769632e-002
 -2.8086904e-002
 -2.9341672e-002
 -2.6413880e-002
 -1.6944563e-002
 -1.7513391e-002
 -1.8968922e-002
 -2.4389521e-002
 -1.8065489e-002
 -1.2427398e-002
 -4.5307239e-003
 -7.8265815e-003
 -7.9604234e-003
 -1.4535408e-002
 -1.4970395e-002
 -2.2381892e-002
 -2.1629031e-002
 -1.8048759e-002
 -3.1588441e-003
 -4.4854493e-004
 -1.6865828e-003
 -1.4468487e-002
 -3.4695349e-002
 -5.5407389e-002
 -4.8397417e-002
 -2.9040528e-002
  5.6412630e-003
  2.6838479e-002
  2.7792103e-002
  9.8907444e-003
  1.3081304e-003
 -6.3208597e-003
 -3.1253836e-003
  6.4108541e-003
  2.8059787e-002
  3.3513845e-002
  2.1601913e-002
 -1.0838025e-002
 -4.2759326e-002
 -7.2672998e-002
 -8.2008473e-002
 -8.0368909e-002
 -7.2589347e-002
 -7.6085967e-002
 -7.7675340e-002
 -7.5751362e-002
 -5.2462866e-002
 -3.0696822e-002
 -2.2381892e-002
 -4.8481069e-002
 -9.0390324e-002
 -1.2721359e-001
 -1.2112378e-001
 -8.4819153e-002
 -3.0127994e-002
  2.2388235e-002
  7.7112855e-002
  1.0036789e-001
  8.1696941e-002
  1.1747801e-002
 -7.7859373e-002
 -1.5771282e-001
 -1.8245684e-001
 -1.5940257e-001
 -1.1613817e-001
 -9.0791849e-002
 -7.3526240e-002
 -6.3755779e-002
 -5.6243901e-002
 -6.6683571e-002
 -7.2438774e-002
 -8.3664767e-002
 -9.5275554e-002
 -1.0621713e-001
 -9.3251195e-002
 -6.8339865e-002
 -2.7752299e-002
  7.2808267e-003
  3.1288723e-002
  2.9348015e-002
  2.1233848e-002
  1.6231506e-002
  3.0000495e-002
  4.3786214e-002
  5.2669972e-002
  2.7992866e-002
 -1.3832738e-002
 -4.8916055e-002
 -4.2173767e-002
  1.9104191e-003
  7.0905935e-002
  1.1152696e-001
  1.0572157e-001
  4.4856949e-002
 -3.3407121e-002
 -1.0293800e-001
 -1.2371696e-001
 -9.0574356e-002
 -1.5706525e-002
  4.1745124e-002
  5.6367355e-002
  1.5679408e-002
 -4.2290879e-002
 -9.6597243e-002
 -1.2400138e-001
 -1.3763653e-001
 -1.3137942e-001
 -1.0675250e-001
 -4.9769297e-002
  9.3386464e-003
  4.1193026e-002
  9.3888371e-003
 -6.1597578e-002
 -1.3313609e-001
 -1.5933565e-001
 -1.4069816e-001
 -8.0887546e-002
 -2.4774316e-002
  9.0876928e-003
  1.0978210e-002
  6.4610448e-003
 -6.0364456e-003
 -9.0478891e-003
 -1.0520150e-002
 -6.0364456e-003
 -8.4623307e-003
 -1.5527409e-003
  6.1933610e-003
  1.7536465e-002
  2.1468072e-002
  3.5889540e-002
  5.2201525e-002
  6.8145446e-002
  6.1787954e-002
  4.2832590e-002
  8.1173388e-003
 -1.9755244e-002
 -4.0751697e-002
 -4.3261233e-002
 -3.4594968e-002
 -8.3452190e-003
  1.0442842e-002
  1.9376791e-002
  1.2918918e-002
  1.1145512e-002
  9.7736327e-003
  2.3074175e-002
  3.9319239e-002
  6.4632095e-002
  8.3219393e-002
  1.0155574e-001
  1.1015508e-001
  1.1980843e-001
  1.1980843e-001
  1.1994227e-001
  1.1249732e-001
  1.0736113e-001
  8.9995141e-002
  6.6807026e-002
  3.3329813e-002
  1.6482460e-002
  2.2321314e-002
  6.0583376e-002
  1.0038462e-001
  1.3290821e-001
  1.4010221e-001
  1.3605350e-001
  1.1539165e-001
  8.9158629e-002
  5.0511771e-002
  1.7235320e-002
 -6.7893065e-003
 -1.9542667e-003
  1.4943277e-002
  4.1075915e-002
  5.1632697e-002
  4.7249374e-002
  2.2354774e-002
 -4.6527518e-004
 -2.0943091e-002
 -1.8132410e-002
  1.4085119e-003
  4.0891882e-002
  7.6058850e-002
  1.0565465e-001
  1.1437110e-001
  1.1549203e-001
  1.0271012e-001
  8.9576885e-002
  7.1123429e-002
  6.3427517e-002
  5.9328608e-002
  6.7660269e-002
  7.3264899e-002
  7.7129585e-002
  6.5217653e-002
  6.4615365e-002
  7.9873345e-002
  1.1234674e-001
  1.2512865e-001
  1.0973683e-001
  5.9479180e-002
  8.5690553e-003
 -2.5393335e-002
 -1.7061675e-002
  1.4324258e-002
  5.3891280e-002
  7.0738633e-002
  6.3979615e-002
  2.6855209e-002
 -1.5087506e-002
 -5.4805100e-002
 -6.8557358e-002
 -6.1580848e-002
 -3.1784287e-002
 -6.2372085e-003
  1.0493033e-002
  7.2306360e-003
  3.1819175e-003
 -4.2295795e-003
 -2.8409695e-003
 -1.5192804e-003
  1.0108238e-002
  1.5394994e-002
  1.9644475e-002
  1.2350090e-002
  7.8161944e-003
  2.4290566e-003
  9.1211533e-003
  1.4508291e-002
  2.3977608e-002
  2.3693194e-002
  2.2973793e-002
  1.5913631e-002
  1.3537937e-002
  6.1097098e-003
  9.0542323e-003
  1.0526494e-002
  1.3939463e-002
  7.6656222e-003
  4.8884021e-003
 -2.5230949e-003
  1.5374376e-004
  4.9385929e-003
  1.9393522e-002
  2.6754828e-002
  3.3062129e-002
  2.5215646e-002
  1.5980552e-002
 -1.8706155e-003
 -1.2226635e-002
 -2.1143854e-002
 -1.7630503e-002
 -1.4117152e-002
 -3.9117049e-003
 -1.7200433e-003
  2.7302010e-003
 -7.4968928e-004
 -1.9877272e-003
 -9.5163359e-003
 -8.1946468e-003
 -5.8691432e-003
  5.2062767e-003
  9.6397907e-003
  1.2216248e-002
  3.2822989e-003
 -3.5603699e-003
 -1.6024400e-002
 -2.0541565e-002
 -2.5159112e-002
 -1.9203146e-002
 -1.4401566e-002
 -3.3763372e-003
 -2.1048389e-003
 -1.5862014e-003
 -8.8136657e-003
 -9.7505593e-003
 -1.5940749e-002
 -1.9705053e-002
 -2.8555351e-002
 -2.3251864e-002
 -9.5163359e-003
  2.2973793e-002
  5.6300435e-002
  9.3575413e-002
  1.2253546e-001
  1.4077142e-001
  1.1621143e-001
  5.2017493e-002
 -4.1437637e-002
 -1.1568645e-001
 -1.4884579e-001
 -1.1991920e-001
 -5.3182266e-002
  3.0385290e-002
  8.3738031e-002
  9.7406638e-002
  6.5970514e-002
  2.1049816e-002
 -2.6999438e-002
 -5.2914583e-002
 -6.0510112e-002
 -4.2391261e-002
 -1.8467015e-002
  1.1931834e-002
  3.0084146e-002
  4.3117004e-002
  3.9754226e-002
  2.9967034e-002
  6.7119985e-003
 -1.3514864e-002
 -3.1566794e-002
 -2.8672462e-002
 -1.4853283e-002
  1.3086221e-002
  3.2560222e-002
  3.9302509e-002
  1.5461915e-002
 -7.9771536e-003
 -1.4501948e-002
  7.5652408e-003
  2.5633902e-002
  2.8093247e-002
  4.1355413e-003
 -1.3431212e-002
 -1.5857097e-002
  1.0359191e-002
  4.4171009e-002
  7.6627678e-002
  7.8869530e-002
  5.3974931e-002
 -1.6531223e-003
 -5.6310822e-002
 -9.5409396e-002
 -9.5693810e-002
 -6.9276759e-002
 -2.1194044e-002
  1.6984367e-002
  4.2280492e-002
  4.2765669e-002
  3.6073572e-002
  2.2254393e-002
  1.5043659e-002
  2.8758570e-004
 -1.3581785e-002
 -3.5280908e-002
 -4.2692405e-002
 -3.8074858e-002
 -1.5974209e-002
  4.0184296e-003
  3.1891012e-002
  5.1984032e-002
  6.1352967e-002
  4.6061527e-002
  2.2488616e-002
 -6.8729577e-003
 -1.4000041e-002
 -4.0455469e-003
  2.1802676e-002
  3.6859894e-002
  4.0741310e-002
  2.1534993e-002
  3.3492199e-003
 -1.2327016e-002
 -1.1423583e-002
 -6.7725763e-003
  5.2230070e-003
  7.2139057e-003
  1.0493033e-002
  3.5450666e-004
 -9.9680524e-003
 -1.6994754e-002
 -1.0842941e-003
  1.6666492e-002
  3.0017225e-002
  2.6403493e-002
  2.7507689e-002
  2.2338044e-002
  7.8998456e-003
 -2.8488430e-002
 -6.0677415e-002
 -8.6023731e-002
 -8.7562913e-002
 -7.5282916e-002
 -5.0087172e-002
 -3.7188155e-002
 -3.0780473e-002
 -3.9162324e-002
 -4.7243031e-002
 -6.1246243e-002
 -6.3555016e-002
 -6.2082755e-002
 -5.1960959e-002
 -5.0405046e-002
 -4.8715292e-002
 -5.6611966e-002
 -6.0108586e-002
 -6.6415888e-002
 -5.7665971e-002
 -4.3629298e-002
 -1.6459386e-002
  6.5948868e-003
  3.0284909e-002
  4.8721635e-002
  7.9354707e-002
  1.0040135e-001
  1.0386451e-001
  6.4397871e-002
 -3.9284352e-003
 -8.3480734e-002
 -1.2219451e-001
 -1.0713730e-001
 -4.2608754e-002
  1.7268781e-002
  4.7148992e-002
  2.9783002e-002
 -1.2460858e-002
 -6.6599920e-002
 -8.9520351e-002
 -8.4216865e-002
 -5.8920739e-002
 -3.7673332e-002
 -1.0737644e-002
  7.2473662e-003
  1.7871070e-002
  6.4108541e-003
 -1.4819822e-002
 -5.4621067e-002
 -8.3330162e-002
 -8.8566727e-002
 -5.8653055e-002
 -3.0847394e-002
 -1.7881457e-002
 -3.0512789e-002
 -4.1922814e-002
 -5.2496327e-002
 -4.5837690e-002
 -2.1076933e-002
  2.6537335e-002
  6.1102014e-002
  6.9902121e-002
  3.2225617e-002
 -2.1779603e-002
 -6.6951255e-002
 -6.3153490e-002
 -2.3619930e-002
  3.3664418e-002
  6.0315693e-002
  4.5024252e-002
 -1.4936934e-002
 -7.6989400e-002
 -1.2229489e-001
 -1.2180972e-001
 -8.7613104e-002
 -3.0813933e-002
  9.3888371e-003
  2.6052158e-002
  8.1340690e-003
 -1.8584127e-002
 -5.2178452e-002
 -7.0782481e-002
 -7.9197792e-002
 -6.6148204e-002
 -4.8330496e-002
 -1.8500476e-002
 -1.9375364e-003
 -4.3299610e-003
 -3.6636057e-002
 -6.8339865e-002
 -8.7864057e-002
 -7.3074524e-002
 -4.3679489e-002
 -9.6669080e-003
  6.1933610e-003
  1.6097664e-002
  1.1948564e-002
  1.0041317e-002
  2.5796288e-003
  2.7134707e-003
 -3.8782445e-003
 -9.1315403e-003
 -2.8287667e-002
 -5.1325210e-002
 -7.6470763e-002
 -7.4463134e-002
 -5.4253002e-002
 -2.2850338e-002
 -1.1423583e-002
 -1.2962766e-002
 -2.7183471e-002
 -3.1867939e-002
 -3.5013224e-002
 -2.4238948e-002
 -2.0792519e-002
 -2.6781945e-002
 -6.2099485e-002
 -1.0409239e-001
 -1.4228753e-001
 -1.4166851e-001
 -1.1026585e-001
 -6.1246243e-002
 -2.9575896e-002
 -1.0838025e-002
 -1.4920204e-002
 -2.7852681e-002
 -5.2546517e-002
 -6.1865262e-002
 -5.2998234e-002
 -1.0352848e-002
  4.1845506e-002
  8.8104624e-002
  8.9894760e-002
  6.2473894e-002
  2.5366218e-002
  1.8138753e-002
  2.7156354e-002
  4.3635642e-002
  3.9034825e-002
  2.0414066e-002
 -1.2444128e-002
 -1.8065489e-002
  8.0002271e-003
  6.5468607e-002
  1.1341748e-001
  1.3628772e-001
  1.1773388e-001
  8.1479448e-002
  3.1740440e-002
  8.3968367e-004
 -4.2128493e-003
  2.9314555e-002
  7.0052693e-002
  1.1152696e-001
  1.3059944e-001
  1.3245649e-001
  1.1266462e-001
  9.8343532e-002
  7.9522010e-002
  7.1407843e-002
  6.7743920e-002
  7.9555470e-002
  8.5026259e-002
  8.8255196e-002
  7.5155417e-002
  6.6539342e-002
  6.9383483e-002
  9.2203533e-002
  9.8711597e-002
  8.2014816e-002
  3.0820277e-002
 -1.7881457e-002
 -4.7828589e-002
 -4.2508372e-002
 -2.2833608e-002
  1.6699953e-002
  5.3121689e-002
  7.9956996e-002
  7.2662611e-002
  4.9876022e-002
  1.3788891e-002
 -1.2025872e-002
 -2.9776658e-002
 -2.1963636e-002
 -2.9748114e-003
  3.1255263e-002
  5.7822887e-002
  8.4490892e-002
  1.0187361e-001
  1.2240162e-001
  1.2251873e-001
  1.0600598e-001
  7.1792638e-002
  4.9156621e-002
  3.8348885e-002
  5.5212969e-002
  7.8986642e-002
  1.0545388e-001
  1.0913454e-001
  9.8644676e-002
  6.8279287e-002
  4.2146650e-002
  2.2538807e-002
  2.2137281e-002
  1.9477173e-002
  1.8540279e-002
  7.0466033e-003
 -5.5178081e-003
 -3.1633715e-002
 -5.1040795e-002
 -6.5729948e-002
 -5.9004390e-002
 -4.4967718e-002
 -1.8584127e-002
 -5.1546590e-004
  1.4608672e-002
  1.5746329e-002
  1.8540279e-002
  1.1296085e-002
  9.4222976e-003
  2.5628986e-003
  3.8678574e-003
  4.7043695e-003
  1.3069490e-002
  3.5834433e-003
 -1.5790176e-002
 -4.6874965e-002
 -5.8870549e-002
 -5.5407389e-002
 -3.7790444e-002
 -3.0981236e-002
 -2.5577368e-002
 -3.3741726e-002
 -3.6619327e-002
 -3.7121234e-002
 -1.5773446e-002
  2.0380606e-002
  8.2232309e-002
  1.3188767e-001
  1.5214799e-001
  1.2270276e-001
  6.0633567e-002
 -1.3464673e-002
 -5.2546517e-002
 -5.9205153e-002
 -3.0646631e-002
  6.5781565e-003
  4.8403760e-002
  7.7782065e-002
  1.1299922e-001
  1.2859181e-001
  1.1092467e-001
  4.2799130e-002
 -4.0216329e-002
 -1.1076776e-001
 -1.2467059e-001
 -8.4936265e-002
 -3.6489373e-004
  6.9467135e-002
  9.7975466e-002
  6.5318035e-002
  6.5614263e-003
 -5.6578505e-002
 -8.3748418e-002
 -7.7357465e-002
 -3.5582052e-002
  7.3142872e-003
  4.2782399e-002
  4.8387030e-002
  4.3117004e-002
  2.5801204e-002
  1.3102951e-002
 -7.4752464e-003
 -2.5610828e-002
 -4.9735837e-002
 -5.8050767e-002
 -5.9489567e-002
 -4.3093931e-002
 -2.7518076e-002
 -1.0938406e-002
 -1.8768159e-002
 -4.3612568e-002
 -7.2053979e-002
 -6.2735234e-002
 -2.8655732e-002
  1.4625403e-002
  2.5767744e-002
  1.5478645e-002
 -5.1162823e-003
  2.2784844e-003
  3.2844636e-002
  8.0576015e-002
  1.0354664e-001
  9.6620317e-002
  4.8136077e-002
 -1.0453229e-002
 -6.4006733e-002
 -7.8277629e-002
 -6.3203681e-002
 -2.1946905e-002
  1.2734885e-002
  4.1628013e-002
  4.9190082e-002
  4.9574877e-002
  3.7211229e-002
  2.8026326e-002
  4.9218626e-003
 -1.9336988e-002
 -4.8531259e-002
 -6.1664499e-002
 -6.8189293e-002
 -5.3232457e-002
 -3.0211645e-002
  3.2655687e-003
  1.8439898e-002
  1.8004912e-002
 -5.0995521e-003
 -2.3536278e-002
 -3.8509845e-002
 -3.1767557e-002
 -1.9387178e-002
  3.0313453e-003
  1.3889272e-002
  1.9326601e-002
  6.8793009e-003
 -5.1999335e-003
 -2.1428268e-002
 -2.3636660e-002
 -2.5661019e-002
 -2.4807777e-002
 -3.9162324e-002
 -5.0622539e-002
 -6.4659212e-002
 -6.1145861e-002
 -5.0221014e-002
 -2.4422981e-002
 -5.1999335e-003
  1.4140226e-002
  1.9360061e-002
  2.6102348e-002
  2.4981422e-002
  2.8478043e-002
  2.4446055e-002
  2.6186000e-002
  1.7687037e-002
  7.8998456e-003
 -1.1607616e-002
 -1.6743800e-002
 -1.2092793e-002
  1.1530308e-002
  2.7959405e-002
  3.9520002e-002
  2.8059787e-002
  1.2249708e-002
 -7.4752464e-003
 -8.8973169e-003
 -6.1535573e-003
  7.7492734e-003
  1.1697610e-002
  1.5763059e-002
  1.0325731e-002
  8.3013714e-003
 -4.0790074e-003
 -7.1908323e-003
 -4.7147565e-003
  2.1969979e-002
  5.3707247e-002
  9.1249909e-002
  1.1565933e-001
  1.3131884e-001
  1.1517415e-001
  7.7848986e-002
  1.6867255e-002
 -3.6368374e-002
 -7.1618993e-002
 -6.1614308e-002
 -2.3653390e-002
  3.1924473e-002
  6.5652640e-002
  7.4051221e-002
  4.7952044e-002
  1.7620116e-002
 -1.3263910e-002
 -2.1746142e-002
 -2.1946905e-002
 -8.5292516e-003
 -1.8086107e-004
  1.3253523e-002
  1.6967637e-002
  2.4563166e-002
  2.1685565e-002
  1.8707582e-002
  3.3826804e-003
 -8.0775351e-003
 -2.4891428e-002
 -2.9642816e-002
 -3.4009410e-002
 -2.7166741e-002
 -2.5610828e-002
 -2.1896715e-002
 -3.1817748e-002
 -2.2264780e-002
  5.6245328e-003
  4.7148992e-002
  6.1503540e-002
  4.8052425e-002
  5.9758678e-003
 -2.2415352e-002
 -3.0362217e-002
 -3.4265279e-003
  2.8745727e-002
  5.5363541e-002
  4.6111717e-002
  1.2517392e-002
 -4.6289407e-002
 -9.9123510e-002
 -1.4096584e-001
 -1.4902982e-001
 -1.3792094e-001
 -1.0332280e-001
 -7.2254742e-002
 -4.1889353e-002
 -2.8488430e-002
 -1.9169685e-002
 -2.4004725e-002
 -2.7200201e-002
 -4.2056656e-002
 -5.4068969e-002
 -7.2957412e-002
 -8.2409998e-002
 -9.1042803e-002
 -8.3731688e-002
 -7.6554414e-002
 -6.0242428e-002
 -5.4336653e-002
 -4.9986790e-002
 -5.9958014e-002
 -6.5763408e-002
 -7.6085967e-002
 -7.5165804e-002
 -7.5684441e-002
 -6.5913980e-002
 -6.0710875e-002
 -5.1994419e-002
 -5.5089514e-002
 -5.3818016e-002
 -5.9874363e-002
 -5.8970930e-002
 -6.2534471e-002
 -5.7565590e-002
 -5.7883464e-002
 -5.1877308e-002
 -5.3884937e-002
 -4.9116818e-002
 -5.0990605e-002
 -4.6674202e-002
 -4.9618725e-002
 -4.5218671e-002
 -4.9451423e-002
 -4.8982976e-002
 -5.4085699e-002
 -4.8949515e-002
 -4.6506900e-002
 -3.4728810e-002
 -2.8722653e-002
 -1.7814536e-002
 -2.1210775e-002
 -2.9893770e-002
 -5.3366299e-002
 -6.9594633e-002
 -8.4551469e-002
 -7.9281443e-002
 -6.5562645e-002
 -3.7321997e-002
 -1.9939276e-002
 -1.0653992e-002
 -2.4038186e-002
 -3.6418564e-002
 -5.1258289e-002
 -4.8213385e-002
 -3.6920472e-002
 -5.5512686e-003
  2.4563166e-002
  5.3473024e-002
  5.8726320e-002
  5.7538472e-002
  4.1393789e-002
  2.6169269e-002
 -2.2386808e-003
 -3.1215459e-002
 -7.0999974e-002
 -9.5610159e-002
 -1.0432661e-001
 -8.1322533e-002
 -4.8397417e-002
 -5.8022222e-003
  1.6699953e-002
  2.4529706e-002
  8.0169573e-003
 -9.2151915e-003
 -2.9843579e-002
 -3.1064887e-002
 -2.5577368e-002
 -3.7778630e-003
  1.1881643e-002
  2.4161640e-002
  1.3236793e-002
 -3.3596070e-003
 -2.6631373e-002
 -3.1616985e-002
 -2.9073988e-002
 -1.0168815e-002
  2.9978848e-003
  1.2684695e-002
 -1.8538852e-003
 -2.5125651e-002
 -5.2395945e-002
 -3.8275621e-002
  8.8032787e-003
  6.8680813e-002
  8.9727457e-002
  7.1006317e-002
  1.6633032e-002
 -2.7417694e-002
 -4.8849134e-002
 -2.4791046e-002
  1.9912159e-002
  7.3499123e-002
  9.6118409e-002
  9.0547239e-002
  5.2502670e-002
  1.8289326e-002
 -3.2257650e-003
  1.0911289e-002
  3.6608940e-002
  6.8664083e-002
  7.9003372e-002
  7.6510566e-002
  5.4359726e-002
  3.9804416e-002
  3.0217988e-002
  4.2347413e-002
  5.7120216e-002
  7.6477106e-002
  7.9890075e-002
  8.0609476e-002
  6.8931767e-002
  6.5602449e-002
  6.1419888e-002
  6.9751549e-002
  7.3231439e-002
  8.1211764e-002
  7.7430730e-002
  7.6493836e-002
  6.7191822e-002
  6.5502067e-002
  5.9964357e-002
  6.4029806e-002
  6.2256401e-002
  6.6974329e-002
  6.2440433e-002
  6.2172749e-002
  5.3991661e-002
  5.3623596e-002
  4.9273733e-002
  5.6434276e-002
  5.9278418e-002
  6.6873947e-002
  6.1336237e-002
  5.4041852e-002
  3.5370902e-002
  2.7139623e-002
  1.9477173e-002
  2.5466599e-002
  2.9732811e-002
  4.1795315e-002
  4.5308666e-002
  5.3088228e-002
  5.0996948e-002
  5.4008391e-002
  4.8504142e-002
  4.6931499e-002
  3.6123763e-002
  3.0084146e-002
  1.4274068e-002
  6.8625706e-003
 -7.1622880e-004
  7.6823525e-003
  2.3007254e-002
  5.6986374e-002
  8.5327404e-002
  1.1673007e-001
  1.3247322e-001
  1.3374472e-001
  9.7824894e-002
  4.2380874e-002
 -2.7651918e-002
 -7.1702644e-002
 -8.3698227e-002
 -4.7811859e-002
  5.0222441e-003
  5.8625938e-002
  7.5523482e-002
  6.5267844e-002
  2.6119079e-002
 -7.0737206e-003
 -3.2269464e-002
 -3.1734097e-002
 -2.4105107e-002
 -4.0120864e-003
  6.7789194e-003
  1.9795047e-002
  2.2271123e-002
  2.8109977e-002
  2.1852867e-002
  1.6683222e-002
 -2.9797276e-004
 -1.0503420e-002
 -2.2415352e-002
 -2.1110393e-002
 -2.1043472e-002
 -1.1373393e-002
 -1.2076063e-002
 -1.6007670e-002
 -2.5393335e-002
 -7.2912137e-003
  1.9878699e-002
  4.5927685e-002
  3.6642401e-002
  8.7363577e-003
 -2.7702108e-002
 -3.3858837e-002
 -1.5907288e-002
  2.4947962e-002
  4.8654714e-002
  5.1482125e-002
  1.8389707e-002
 -2.3803962e-002
 -6.7536814e-002
 -8.3480734e-002
 -8.1456375e-002
 -5.4152620e-002
 -2.7350773e-002
  6.5565101e-004
  9.4222976e-003
  1.1965294e-002
  4.8834860e-004
 -1.9542667e-003
 -6.0364456e-003
 -4.6527518e-004
 -2.1382993e-003
  2.0393449e-004
 -7.2744835e-003
 -9.1315403e-003
 -1.7162056e-002
 -1.4485218e-002
 -1.4234264e-002
 -6.0197154e-003
 -6.9064182e-003
 -4.0622771e-003
 -1.0971867e-002
 -1.1088979e-002
 -1.5438841e-002
 -1.0152085e-002
 -9.3657637e-003
 -1.1679453e-003
 -2.0881086e-003
  6.2219053e-004
 -6.3375900e-003
 -7.7429303e-003
 -1.4568869e-002
 -1.1841839e-002
 -1.3882929e-002
 -6.5216226e-003
 -5.6181896e-003
  6.5565101e-004
 -1.4690897e-003
  2.0777215e-003
 -2.2888715e-003
  7.8949294e-004
 -3.2424953e-003
 -1.8371550e-003
 -8.9307774e-003
 -1.0754374e-002
 -1.9303527e-002
 -1.8266252e-002
 -2.1210775e-002
 -1.4301185e-002
 -1.2092793e-002
 -3.5938304e-003
 -3.3261465e-003
  4.1857320e-003
  4.4701461e-003
  8.9371206e-003
  1.2746699e-003
 -5.0493614e-003
 -1.9002383e-002
 -2.1879984e-002
 -2.7752299e-002
 -2.3753771e-002
 -2.2883799e-002
 -7.3581347e-003
  1.2249708e-002
  4.3786214e-002
  6.7777380e-002
  9.5951107e-002
  1.0379759e-001
  9.0313016e-002
  3.9586923e-002
 -2.2147668e-002
 -8.3430543e-002
 -1.0415931e-001
 -8.6073921e-002
 -2.8003253e-002
  2.7859024e-002
  6.5267844e-002
  5.8625938e-002
  3.1087960e-002
 -1.0352848e-002
 -3.3791916e-002
 -4.3160852e-002
 -2.7936332e-002
 -1.0670723e-002
  1.4842896e-002
  2.9598969e-002
  4.4421963e-002
  4.5208284e-002
  4.3602181e-002
  2.5483330e-002
  6.4945053e-003
 -2.2331701e-002
 -4.1638400e-002
 -5.9840903e-002
 -6.3772509e-002
 -7.0598448e-002
 -7.0933053e-002
 -8.2359808e-002
 -8.0603132e-002
 -5.7197524e-002
 -3.8949747e-003
  3.5320712e-002
  4.5024252e-002
  4.4701461e-003
 -4.9919869e-002
 -9.6898388e-002
 -1.0241937e-001
 -8.2644222e-002
 -4.6172295e-002
 -3.2871753e-002
 -4.2039926e-002
 -8.0937737e-002
 -1.1762716e-001
 -1.4585107e-001
 -1.4109969e-001
 -1.1971844e-001
 -7.9766620e-002
 -5.1525972e-002
 -3.3925758e-002
 -4.0734967e-002
 -5.1509242e-002
 -6.7804498e-002
 -6.8574089e-002
 -6.7687386e-002
 -5.8050767e-002
 -5.7448478e-002
 -5.4002048e-002
 -6.0142047e-002
 -5.8184609e-002
 -5.8887279e-002
 -4.9434692e-002
 -4.6573821e-002
 -3.9647501e-002
 -4.2307609e-002
 -4.0484013e-002
 -4.6741123e-002
 -4.5352513e-002
 -4.8347227e-002
 -4.2993549e-002
 -4.3395075e-002
 -3.6769899e-002
 -3.7974477e-002
 -3.3323470e-002
 -3.6201071e-002
 -3.3975949e-002
 -3.8978291e-002
 -3.6485485e-002
 -3.9112133e-002
 -3.4260363e-002
 -3.5816276e-002
 -3.2420037e-002
 -3.7271807e-002
 -3.6870281e-002
 -4.3127391e-002
 -3.9864994e-002
 -3.9881724e-002
 -3.0596440e-002
 -2.5309684e-002
 -1.3749087e-002
 -1.3581785e-002
 -1.4435027e-002
 -2.9124179e-002
 -4.1889353e-002
 -6.0677415e-002
 -6.4793054e-002
 -6.0844717e-002
 -3.5247447e-002
 -1.2025872e-002
  7.4648593e-003
  3.3492199e-003
 -8.1946468e-003
 -3.0412408e-002
 -3.9697692e-002
 -4.1019381e-002
 -1.7965108e-002
  1.3036030e-002
  4.8504142e-002
  5.8743050e-002
  5.9495911e-002
  5.0796185e-002
  5.2603051e-002
  4.7416676e-002
  3.5772428e-002
 -1.1679453e-003
 -4.1153223e-002
 -7.8294359e-002
 -7.9164332e-002
 -5.1559433e-002
  3.5834433e-003
  5.0394659e-002
  8.1412527e-002
  7.7179776e-002
  5.9746864e-002
  3.2493301e-002
  2.5717553e-002
  3.6742782e-002
  7.2645881e-002
  1.0366375e-001
  1.2782222e-001
  1.2501154e-001
  1.0930184e-001
  7.8250511e-002
  5.6902723e-002
  4.1176296e-002
  4.5509429e-002
  5.2151335e-002
  6.5803212e-002
  6.7693729e-002
  6.7727190e-002
  5.2586321e-002
  4.9658529e-002
  6.4113457e-002
  1.0143863e-001
  1.2539633e-001
  1.2837432e-001
  9.4328274e-002
  5.3372642e-002
  1.4106765e-002
  6.2937424e-003
  2.0230034e-002
  5.6099672e-002
  8.2717486e-002
  9.6386093e-002
  7.8200321e-002
  4.7450137e-002
  8.3181017e-003
 -1.0001513e-002
 -1.0771104e-002
  1.5144040e-002
  4.1795315e-002
  6.7844301e-002
  7.1608606e-002
  6.4782667e-002
  4.3585451e-002
  3.1037770e-002
  2.0330415e-002
  2.4412594e-002
  2.6487144e-002
  3.3380004e-002
  3.0786816e-002
  3.2091775e-002
  2.8310740e-002
  3.4032483e-002
  3.5002837e-002
  3.9720765e-002
  3.4183055e-002
  3.0418751e-002
  1.8874884e-002
  1.5813250e-002
  1.0961480e-002
  1.6716683e-002
  1.9343331e-002
  2.7507689e-002
  2.5332757e-002
  2.4278752e-002
  1.3387365e-002
  1.0074777e-002
  5.4237699e-003
  1.0743987e-002
  1.2350090e-002
  2.1317499e-002
  2.2823221e-002
  2.8093247e-002
  2.3927417e-002
  2.1551723e-002
  9.9409351e-003
  3.3324897e-003
 -9.2988427e-003
 -1.3163529e-002
 -1.9002383e-002
 -1.5472302e-002
 -1.3949850e-002
 -4.5976448e-003
 -1.3352477e-003
  7.9165759e-003
  1.1881643e-002
  2.1568453e-002
  2.1635374e-002
  1.9795047e-002
  4.0016993e-003
 -8.0608049e-003
 -2.3302055e-002
 -2.6079275e-002
 -2.6597913e-002
 -1.5254809e-002
 -4.6812961e-003
  2.0347145e-002
  4.3250846e-002
  7.0437489e-002
  8.9995141e-002
  1.0717710e-001
  9.6988382e-002
  6.3343866e-002
  3.0431594e-004
 -6.0192238e-002
 -1.0248629e-001
 -9.7316644e-002
 -5.6729078e-002
  8.6861670e-003
  5.3841089e-002
  7.0470949e-002
  4.7734551e-002
  1.4006384e-002
 -2.1344617e-002
 -3.3474042e-002
 -3.3390391e-002
 -1.4970395e-002
  2.0108006e-003
  2.2990524e-002
  3.3664418e-002
  4.3886595e-002
  4.0440165e-002
  3.5605126e-002
  1.8791233e-002
  5.8922166e-003
 -8.1444561e-003
 -8.1779165e-003
 -6.6554646e-003
  3.4328711e-003
  3.8678574e-003
  2.5412521e-004
 -1.8282982e-002
 -2.0825979e-002
 -1.6865828e-003
  3.6324526e-002
  5.2285177e-002
  4.0339784e-002
 -5.3219614e-004
 -3.0194914e-002
 -3.7589681e-002
 -8.8638565e-003
  2.5332757e-002
  5.1783269e-002
  4.3183925e-002
  1.0476303e-002
 -4.1069572e-002
 -7.7976484e-002
 -9.7601058e-002
 -8.5086837e-002
 -5.9021121e-002
 -2.1980366e-002
  1.7431167e-003
  1.5361533e-002
  7.9165759e-003
 -4.8200542e-004
 -9.7672895e-003
 -4.3466912e-003
  1.8267679e-003
  1.1931834e-002
  9.9242048e-003
  7.1469847e-003
 -4.6812961e-003
 -1.1189360e-002
 -1.8349903e-002
 -1.4368106e-002
 -1.2912575e-002
 -5.7185710e-003
 -6.9064182e-003
 -5.8022222e-003
 -1.0252467e-002
 -7.0904508e-003
 -6.9064182e-003
  3.5450666e-004
  8.3968367e-004
  3.4496014e-003
 -2.1884901e-003
 -4.7147565e-003
 -1.2310286e-002
 -1.1624346e-002
 -1.2979496e-002
 -6.2873992e-003
 -4.5139936e-003
  3.7123690e-004
 -3.3596070e-003
 -3.8615142e-003
 -1.0018243e-002
 -8.1611863e-003
 -7.8433117e-003
 -1.6413083e-004
  2.4625171e-003
  8.7196275e-003
  4.9218626e-003
  3.1317268e-003
 -5.5847291e-003
 -9.4494149e-003
 -1.7530122e-002
 -1.7864726e-002
 -2.0022928e-002
 -1.3598515e-002
 -1.1172630e-002
 -4.5976448e-003
 -3.2592255e-003
  4.7880207e-003
  7.8998456e-003
  1.3755430e-002
  6.8625706e-003
 -2.7071275e-003
 -1.8851811e-002
 -2.4439711e-002
 -2.8153825e-002
 -2.2381892e-002
 -1.9939276e-002
 -7.5588976e-003
  9.5394093e-003
  3.7010466e-002
  5.5798527e-002
  7.6025389e-002
  8.7000428e-002
  9.0112253e-002
  6.5251114e-002
  2.0932704e-002
 -3.9647501e-002
 -8.1857900e-002
 -9.5392666e-002
 -6.3990002e-002
 -1.2962766e-002
  3.8700220e-002
  5.7906538e-002
  4.9976403e-002
  1.6398808e-002
 -1.3782547e-002
 -3.5582052e-002
 -3.5130336e-002
 -2.4958349e-002
 -1.9375364e-003
  1.7285511e-002
  3.7646215e-002
  4.5475968e-002
  4.8052425e-002
  3.6090303e-002
  2.2404965e-002
  2.1111820e-003
 -6.9231484e-003
 -1.1825109e-002
 -3.5436396e-003
  2.2450240e-003
  7.3142872e-003
 -3.3930675e-003
 -1.9521020e-002
 -3.1014696e-002
 -7.4250557e-003
  3.0435481e-002
  5.9562832e-002
  4.6613625e-002
  3.4997921e-003
 -5.4403574e-002
 -9.0858770e-002
 -1.0022771e-001
 -7.7340735e-002
 -5.0254474e-002
 -2.8639002e-002
 -3.3507502e-002
 -5.0756381e-002
 -7.8277629e-002
 -9.6128797e-002
 -1.0492890e-001
 -9.4087707e-002
 -8.0753705e-002
 -6.3872891e-002
 -5.8703246e-002
 -5.6561775e-002
 -6.1463736e-002
 -5.7766353e-002
 -5.3951858e-002
 -4.5302323e-002
 -4.7276491e-002
 -5.3449950e-002
 -6.9176377e-002
 -7.8511852e-002
 -8.4651851e-002
 -7.5349837e-002
 -6.3722319e-002
 -4.7560905e-002
 -4.0768427e-002
 -3.7823905e-002
 -4.6272677e-002
 -5.1308479e-002
 -5.8569404e-002
 -5.7599050e-002
 -5.6745808e-002
 -4.9501613e-002
 -4.7477254e-002
 -4.2491642e-002
 -4.5670388e-002
 -4.7393603e-002
 -5.4202811e-002
 -5.4554146e-002
 -5.5524500e-002
 -4.7845319e-002
 -4.4482541e-002
 -3.8175240e-002
 -3.8744068e-002
 -3.7188155e-002
 -4.0500743e-002
 -3.8911370e-002
 -4.2842977e-002
 -4.3344884e-002
 -4.7092458e-002
 -4.3830061e-002
 -4.1671860e-002
 -3.2386576e-002
 -2.6798675e-002
 -1.6308814e-002
 -1.3966580e-002
 -1.6425926e-002
 -3.2888483e-002
 -5.0806572e-002
 -7.1886677e-002
 -7.7390926e-002
 -7.0380955e-002
 -4.4599652e-002
 -1.8952192e-002
  2.0393449e-004
 -4.3132307e-003
 -1.8282982e-002
 -3.8894640e-002
 -4.6356328e-002
 -4.2140307e-002
 -1.8316443e-002
  1.0677066e-002
  4.1276678e-002
  4.9190082e-002
  4.3769484e-002
  3.2961748e-002
  3.3831720e-002
  3.2710794e-002
  2.6386763e-002
 -3.3428767e-003
 -4.4800415e-002
 -8.8181932e-002
 -1.0390836e-001
 -9.1260296e-002
 -4.9367771e-002
 -7.3581347e-003
  2.3676463e-002
  2.7775373e-002
  1.6716683e-002
 -6.4045109e-003
 -1.9822165e-002
 -2.2164399e-002
 -3.7444025e-003
  1.8055102e-002
  3.7244689e-002
  3.7060657e-002
  2.5901586e-002
  4.0686203e-003
 -8.9475077e-003
 -1.3916389e-002
 -1.5862014e-003
  1.4993468e-002
  3.4935916e-002
  4.0323054e-002
  3.4450739e-002
  8.9371206e-003
 -9.4661451e-003
  3.5834433e-003
  5.5062397e-002
  1.0237552e-001
  1.2126396e-001
  9.4863641e-002
  5.1147520e-002
  1.0777447e-002
  3.6632072e-005
  1.4876356e-002
  5.1866921e-002
  8.1496178e-002
  9.2471217e-002
  7.1039777e-002
  3.4517660e-002
 -2.2386808e-003
 -1.1724728e-002
  3.7340155e-003
  4.3217386e-002
  8.0659666e-002
  1.0351318e-001
  9.5415739e-002
  7.1491494e-002
  3.9118476e-002
  2.0715211e-002
  1.6950906e-002
  3.3162510e-002
  5.2352098e-002
  7.0839014e-002
  7.3616235e-002
  7.0537870e-002
  6.1202395e-002
  5.8308064e-002
  5.6768881e-002
  6.1470079e-002
  6.0566646e-002
  5.9328608e-002
  5.0561962e-002
  4.3819674e-002
  3.6508559e-002
  3.8516188e-002
  4.1628013e-002
  5.0160436e-002
  5.2101144e-002
  5.1783269e-002
  4.3535260e-002
  3.7662945e-002
  3.0636244e-002
  3.1991393e-002
  3.4199785e-002
  4.2732209e-002
  4.7567248e-002
  5.1431934e-002
  4.4037167e-002
  3.4116134e-002
  1.7285511e-002
  6.3941239e-003
 -1.6413083e-004
  4.5203368e-003
  1.1078592e-002
  2.2338044e-002
  2.8494773e-002
  3.6424908e-002
  3.9921528e-002
  4.2949702e-002
  3.6776243e-002
  2.8779187e-002
  1.4675593e-002
  5.8754864e-003
 -2.6067461e-003
 -3.8782445e-003
 -3.6105606e-003
  7.8161944e-003
  2.6202730e-002
  5.6501197e-002
  8.2483263e-002
  1.0662500e-001
  1.1992554e-001
  1.1964113e-001
  8.8924406e-002
  3.6006651e-002
 -2.9107449e-002
 -7.4412943e-002
 -8.4400897e-002
 -4.9869679e-002
  4.4032251e-003
  5.5982560e-002
  7.5657324e-002
  6.5351495e-002
  3.2309268e-002
  1.5256236e-003
 -1.9671593e-002
 -1.9922546e-002
 -1.0754374e-002
  7.6488920e-003
  2.3224747e-002
  3.8281964e-002
  4.5626540e-002
  5.0980218e-002
  4.5191554e-002
  3.4768614e-002
  1.7017827e-002
  3.6670945e-003
 -6.1535573e-003
 -3.8782445e-003
 -6.3749377e-005
  6.0595190e-003
  2.7302010e-003
 -9.3490335e-003
 -2.2047287e-002
 -7.1406416e-003
  2.3893957e-002
  5.1398474e-002
  4.6764197e-002
  1.5328073e-002
 -2.2381892e-002
 -3.3992679e-002
 -1.7998568e-002
  1.8155484e-002
  4.3685832e-002
  4.5676731e-002
  1.5461915e-002
 -2.8605542e-002
 -7.2104170e-002
 -9.1410868e-002
 -8.6776592e-002
 -5.9188423e-002
 -2.7049629e-002
  1.3081304e-003
  1.2149327e-002
  1.2534123e-002
  3.3324897e-003
 -2.2386808e-003
 -4.3634215e-003
  1.2746699e-003
  4.4868763e-003
  7.1804452e-003
  2.1446425e-003
 -3.3763372e-003
 -1.0737644e-002
 -1.1841839e-002
 -1.1791649e-002
 -7.0402601e-003
 -6.6220041e-003
 -6.0699061e-003
 -9.8174802e-003
 -1.0135355e-002
 -1.0938406e-002
 -5.7018408e-003
 -3.0584626e-003
  8.0622319e-004
 -1.2683268e-003
 -3.8782445e-003
 -9.9011314e-003
 -1.1741458e-002
 -1.3531594e-002
 -9.8509407e-003
 -7.7931210e-003
 -4.4136122e-003
 -5.7185710e-003
 -6.1702876e-003
 -1.0469960e-002
 -1.0955137e-002
 -1.1088979e-002
 -6.1535573e-003
 -2.5732856e-003
  2.8975034e-003
  3.6838247e-003
  5.8085654e-003
  3.0982663e-003
  9.7352560e-004
 -4.8820590e-003
 -9.2151915e-003
 -1.6375735e-002
 -1.8132410e-002
 -1.8902001e-002
 -1.4317915e-002
 -1.1373393e-002
 -6.7725763e-003
 -4.8653287e-003
  1.6929260e-003
  6.2435517e-003
  1.0559954e-002
  6.1766307e-003
 -3.6774816e-003
 -1.8483745e-002
 -2.6213117e-002
 -2.9241291e-002
 -2.4439711e-002
 -1.9521020e-002
 -9.7505593e-003
  4.9218626e-003
  2.9163983e-002
  5.0277548e-002
  7.1625336e-002
  8.7870400e-002
  9.3826366e-002
  7.3783537e-002
  3.0117606e-002
 -3.0663361e-002
 -7.9549127e-002
 -9.8353919e-002
 -7.3827385e-002
 -2.1796333e-002
  3.3480385e-002
  6.0800870e-002
  5.6200053e-002
  2.4646817e-002
 -1.0168815e-002
 -3.5280908e-002
 -4.0182869e-002
 -3.0981236e-002
 -8.6296331e-003
  1.4458100e-002
  3.5086488e-002
  4.4840219e-002
  4.6128448e-002
  3.6525289e-002
  2.3509161e-002
  6.4443146e-003
 -4.7984077e-003
 -1.0469960e-002
 -6.6052738e-003
 -1.1512151e-003
  4.3864949e-003
 -2.4778203e-004
 -1.3314101e-002
 -2.4690665e-002
 -8.1611863e-003
  2.6503874e-002
  5.4945285e-002
  4.9441035e-002
  1.4307528e-002
 -2.8538621e-002
 -4.7928971e-002
 -3.5297638e-002
  3.2822989e-003
  3.8716951e-002
  5.2485939e-002
  3.1188342e-002
 -1.3180259e-002
 -6.2685044e-002
 -9.2515064e-002
 -9.6664164e-002
 -7.2923951e-002
 -3.7740253e-002
 -3.4934489e-003
  1.4558482e-002
  1.7118209e-002
  6.7621892e-003
 -2.4059832e-003
 -7.6592791e-003
 -4.7482170e-003
 -1.4523594e-003
 -2.8124252e-004
 -6.1368271e-003
 -1.2828924e-002
 -1.8701239e-002
 -1.6007670e-002
 -7.9102327e-003
  3.0313453e-003
  7.1469847e-003
  4.9887836e-003
 -5.6683803e-003
 -1.4635790e-002
 -1.9487560e-002
 -1.4435027e-002
 -5.4341569e-003
  5.3233884e-003
  8.1006085e-003
  5.4405001e-003
 -3.4934489e-003
 -1.1590886e-002
 -1.7413010e-002
 -1.5773446e-002
 -1.1490504e-002
 -4.2797703e-003
 -8.3334049e-004
 -4.8200542e-004
 -4.0957376e-003
 -6.2539388e-003
 -8.0106141e-003
 -4.3968819e-003
 -1.2515965e-003
  1.3917816e-003
  3.7123690e-004
 -4.3181469e-004
 -3.7444025e-003
 -6.2539388e-003
 -1.0670723e-002
 -1.1674537e-002
 -1.1306472e-002
 -8.6129028e-003
 -8.5459819e-003
 -8.1444561e-003
 -9.9680524e-003
 -7.7931210e-003
 -2.7740485e-003
  5.2899279e-003
  8.8200089e-003
  7.6488920e-003
 -1.7033131e-003
 -1.2209905e-002
 -2.1796333e-002
 -2.8220746e-002
 -3.4678619e-002
 -3.7639872e-002
 -3.7790444e-002
 -3.0479329e-002
 -2.0993282e-002
 -8.1277258e-003
  1.0375921e-002
  3.3614227e-002
  4.3485069e-002
  2.9548778e-002
 -1.2795463e-002
 -6.7235669e-002
 -1.1053353e-001
 -1.1993593e-001
 -9.6162257e-002
 -5.4353383e-002
 -2.1411538e-002
 -1.2009142e-002
 -2.8521890e-002
 -5.5892566e-002
 -8.0385639e-002
 -9.0072449e-002
 -8.5889889e-002
 -6.9477522e-002
 -4.8263575e-002
 -2.6648103e-002
 -1.0921676e-002
 -2.8242392e-003
 -7.5087069e-003
 -2.1545380e-002
 -3.9781343e-002
 -5.4754909e-002
 -6.4040193e-002
 -6.3421174e-002
 -5.8134418e-002
 -5.1241558e-002
 -5.1442321e-002
 -6.3605207e-002
 -7.9147601e-002
 -6.7871419e-002
 -2.7953062e-002
  1.4775975e-002
  2.5985237e-002
 -3.0250021e-003
 -5.2195182e-002
 -8.8549997e-002
 -9.5727271e-002
 -7.0966513e-002
 -3.2754641e-002
 -4.9489799e-003
 -5.3170452e-003
 -3.3256549e-002
 -7.5333106e-002
 -1.0814111e-001
 -1.1725909e-001
 -9.6714355e-002
 -5.6980031e-002
 -1.7095135e-002
  2.3955961e-003
 -1.4021687e-003
 -2.3168213e-002
 -4.7192840e-002
 -6.1932183e-002
 -6.1881992e-002
 -5.2579978e-002
 -4.0249790e-002
 -3.4728810e-002
 -3.5364559e-002
 -3.8744068e-002
 -3.9329626e-002
 -3.6351643e-002
 -2.9157639e-002
 -2.2432082e-002
 -1.8751429e-002
 -2.0006197e-002
 -2.4121837e-002
 -2.8070174e-002
 -2.9224560e-002
 -3.0378947e-002
 -3.0010882e-002
 -2.8655732e-002
 -2.6965978e-002
 -2.5995624e-002
 -2.4707395e-002
 -2.3285325e-002
 -2.0206960e-002
 -1.8048759e-002
 -1.6425926e-002
 -1.6308814e-002
 -1.7747615e-002
 -2.0842709e-002
 -1.9755244e-002
 -1.2962766e-002
 -1.9040760e-003
  7.4481291e-003
  8.4352133e-003
 -3.9953561e-003
 -2.5677749e-002
 -4.8732022e-002
 -6.0643954e-002
 -5.3065155e-002
 -2.5644289e-002
  1.0058047e-002
  3.8114662e-002
  4.5409047e-002
  3.4668232e-002
  1.6114394e-002
  1.6092748e-003
  1.2412095e-003
  2.1836137e-002
  5.9178036e-002
  9.9163313e-002
  1.2215067e-001
  1.2757126e-001
  1.2927775e-001
  1.3508314e-001
  1.3765960e-001
  1.2501154e-001
  8.9610346e-002
  4.0072100e-002
 -9.7209860e-005
 -8.6463633e-003
  1.7486274e-002
  6.2591005e-002
  9.9180044e-002
  1.0774593e-001
  8.8322117e-002
  5.3473024e-002
  2.1986709e-002
  1.1413196e-002
  2.5901586e-002
  5.7287519e-002
  9.0781462e-002
  1.1204560e-001
  1.1386920e-001
  9.8862169e-002
  7.4904463e-002
  5.3874549e-002
  4.4840219e-002
  4.9524687e-002
  6.3009261e-002
  7.6912092e-002
  8.2600374e-002
  7.5724245e-002
  5.6718691e-002
  4.1878966e-002
  5.0578692e-002
  7.6393455e-002
  9.7021843e-002
  9.3659064e-002
  6.4498253e-002
  2.4579896e-002
 -4.4470727e-003
 -7.7094698e-003
  1.3889272e-002
  4.6329211e-002
  7.1173619e-002
  7.4436016e-002
  5.4158964e-002
  2.0029271e-002
 -1.1273011e-002
 -2.4590284e-002
 -1.5957479e-002
  7.3477476e-003
  3.3011938e-002
  4.8604523e-002
  4.9340654e-002
  3.8700220e-002
  2.4429324e-002
  1.4073305e-002
  1.1312815e-002
  1.3939463e-002
